energy,intensity
97.76732,0.0051805316
92.828835,0.0054483074
88.18945,0.0058585233
83.8307,0.006171804
79.735245,0.0064796945
75.88682,0.0068178726
72.27017,0.0071590627
68.87099,0.0073752394
65.67586,0.007999592
62.672165,0.0081394985
59.848106,0.008620714
57.19261,0.00893204
54.69525,0.009339874
52.346306,0.00988392
50.136597,0.010551441
48.057564,0.01159762
46.10113,0.012026748
44.25976,0.012527105
42.52636,0.013020632
40.894283,0.01355805
39.357292,0.014438326
37.909534,0.015353923
36.545517,0.016205365
35.260098,0.016919788
34.04844,0.01782069
32.906017,0.018395219
31.828575,0.019269058
30.812122,0.020399982
29.85292,0.021542283
28.947456,0.02183957
28.092442,0.022581877
27.284779,0.023490021
26.521572,0.02474137
25.800108,0.025883868
25.117828,0.027252357
24.472345,0.028594727
23.861408,0.02987502
23.282911,0.031272724
22.734882,0.03215441
22.215462,0.033494994
21.722916,0.034823135
21.255604,0.036067355
20.812004,0.037045605
20.390675,0.038987108
19.990267,0.040495045
19.609518,0.042244792
19.247244,0.043606244
18.902327,0.044824816
18.573725,0.045774348
18.260456,0.047236137
17.961601,0.048264816
17.676302,0.050112672
17.403744,0.05202483
17.143167,0.05374814
16.893862,0.0547994
16.655159,0.056108344
16.426428,0.05706658
16.207083,0.058332115
15.996571,0.059508592
15.794373,0.060868524
15.6,0.06274487
15.412999,0.06407189
15.232939,0.06597413
15.05942,0.06731336
14.892062,0.06811862
14.730514,0.0695563
14.574441,0.07060031
14.423531,0.07164127
14.277491,0.07293392
14.136047,0.075154446
13.998942,0.07635768
13.865933,0.07845272
13.73679,0.07961347
13.611302,0.08061438
13.48927,0.08199011
13.3705015,0.082664065
13.254824,0.08300175
13.142069,0.084377386
13.032082,0.08587014
12.924716,0.087820366
12.819836,0.089445755
12.717309,0.09028116
12.617017,0.09174753
12.518845,0.09223483
12.422684,0.09329976
12.328438,0.09501503
12.23601,0.09626723
12.145311,0.097704105
12.056257,0.099932626
11.968773,0.101209484
11.882783,0.10212535
11.798219,0.103596434
11.7150135,0.105200626
11.633108,0.10581639
11.552444,0.10712133
11.472969,0.10849676
11.394629,0.10988043
11.317378,0.11107993
11.241171,0.11267333
11.165965,0.11414808
11.091721,0.11596038
11.018401,0.11692985
10.945969,0.118500255
10.874393,0.11914657
10.803641,0.120935775
10.733684,0.12199478
10.664492,0.123467684
10.596042,0.12467675
10.528306,0.12603106
10.461264,0.12774175
10.394891,0.12890694
10.329167,0.13050102
10.264075,0.1318242
10.199594,0.13358377
10.135705,0.13564457
10.072394,0.13707434
10.0096445,0.1387322
9.947442,0.14033023
9.885775,0.14039704
9.824624,0.14260225
9.763982,0.1427437
9.703834,0.143928
9.64417,0.14632538
9.584979,0.14715317
9.526253,0.14676356
9.467979,0.14897159
9.410151,0.1495782
9.3527565,0.15057379
9.295791,0.15282544
9.239244,0.15525514
9.183109,0.1567581
9.12738,0.15787444
9.07205,0.15883732
9.01711,0.16125567
8.962557,0.16110212
8.908382,0.16175553
8.854581,0.16282044
8.801149,0.16397405
8.74808,0.16555025
8.69537,0.16588524
8.643014,0.16655378
8.591007,0.16756204
8.539344,0.16789503
8.48802,0.16882463
8.437034,0.17010325
8.38638,0.17234375
8.336055,0.17512761
8.286055,0.17486891
8.236377,0.17557074
8.187016,0.17574173
8.13797,0.17733662
8.089236,0.17723718
8.04081,0.17938907
7.9926906,0.18156007
7.9448724,0.18320164
7.8973556,0.18384384
7.850135,0.18670848
7.80321,0.18634129
7.7565756,0.18802372
7.710231,0.18924814
7.664174,0.19123872
7.6184006,0.19429538
7.57291,0.19738165
7.5276995,0.19779482
7.482766,0.19927391
7.4381084,0.20086113
7.3937244,0.20088749
7.349611,0.20318086
7.3057675,0.20420127
7.2621903,0.20492625
7.218879,0.20675974
7.175831,0.20850642
7.133044,0.20873842
7.090517,0.21009283
7.0482473,0.21289928
7.0062337,0.21510942
6.9644732,0.21525154
6.9229665,0.2161222
6.881709,0.21794586
6.840701,0.2189337
6.79994,0.21939115
6.7594247,0.22199622
6.719154,0.22527342
6.679125,0.22629714
6.6393356,0.22798166
6.599786,0.23110953
6.560474,0.23227286
6.5213976,0.23388755
6.482556,0.23540103
6.443947,0.237488
6.4055705,0.23777643
6.367422,0.23920095
6.3295035,0.24074876
6.291812,0.24092054
6.254346,0.24329324
6.217103,0.24393249
6.1800838,0.24539368
6.1432858,0.2493476
6.106708,0.2509601
6.0703483,0.2518648
6.034206,0.2551797
5.9982805,0.25295252
5.9625683,0.2520301
5.92707,0.25304917
5.891784,0.25518134
5.856708,0.25522077
5.8218417,0.2577478
5.787183,0.2592914
5.752732,0.2618548
5.718485,0.26189807
5.684444,0.26116544
5.650605,0.26144338
5.616968,0.26430273
5.583532,0.26627594
5.550295,0.26603752
5.5172563,0.26776233
5.4844136,0.2694983
5.4517684,0.27004573
5.419316,0.27059013
5.387058,0.2728849
5.3549924,0.27506176
5.3231173,0.27752787
5.2914324,0.2794644
5.2599363,0.2814141
5.228627,0.2829602
5.1975055,0.28773037
5.166569,0.28832805
5.135817,0.2909034
5.105248,0.2907949
5.0748606,0.29582947
5.044654,0.29688066
5.0146275,0.2988032
4.9847803,0.3016128
4.955111,0.30327207
4.9256177,0.30494046
4.8963003,0.30394652
4.867158,0.30636364
4.8381886,0.30985016
4.809392,0.3120076
4.7807665,0.31645977
4.7523127,0.32018942
4.724026,0.32179898
4.695909,0.32155937
4.667959,0.3242631
4.640177,0.32526496
4.612559,0.32910296
4.585105,0.33281687
4.557816,0.3322586
4.530688,0.3372954
4.5037217,0.339799
4.4769163,0.34021038
4.450271,0.3366956
4.423784,0.34101123
4.3974533,0.3422269
4.3712807,0.34460846
4.345264,0.3458356
4.3194017,0.35009328
4.293693,0.35049707
4.2681384,0.35123354
4.2427354,0.34939727
4.217483,0.35217848
4.192381,0.35671383
4.16743,0.359547
4.142626,0.36222598
4.11797,0.3635125
4.09346,0.36391383
4.069097,0.36698562
4.0448785,0.36612886
4.0208044,0.3659716
3.9968739,0.37070805
3.9730854,0.37384218
3.949438,0.3773685
3.925932,0.3809236
3.9025662,0.3843215
3.8793387,0.38512412
3.85625,0.3846034
3.8332987,0.38690615
3.8104842,0.38998547
3.7878044,0.39251238
3.7652605,0.39756435
3.742851,0.401692
3.7205741,0.40155816
3.6984303,0.40160465
3.6764178,0.40460223
3.6545374,0.40245134
3.632786,0.40386087
3.6111646,0.40768752
3.5896719,0.41478443
3.5683074,0.4164533
3.5470698,0.41853705
3.525958,0.42248568
3.5049734,0.4260518
3.484112,0.4269343
3.4633756,0.4297003
3.4427624,0.43522805
3.4222722,0.43486124
3.4019039,0.4378921
3.3816562,0.43793535
3.3615294,0.44012508
3.3415227,0.43971577
3.321635,0.4443174
3.3018653,0.4469777
3.2822137,0.44921106
3.2626784,0.4476691
3.24326,0.45102152
3.2239568,0.4543982
3.2047691,0.45893273
3.1856952,0.46076813
3.1667347,0.4635269
3.1478868,0.46653312
3.1291518,0.47095194
3.1105278,0.47680873
3.0920146,0.4796636
3.0736122,0.4841904
3.0553188,0.48590025
3.037134,0.48761326
3.0190578,0.48234922
3.0010896,0.48596358
2.9832275,0.4881425
2.9654722,0.49106517
2.9478228,0.49129367
2.930278,0.49398732
2.9128375,0.49519873
2.895501,0.49364638
2.878268,0.49634948
2.8611374,0.50084513
2.8441086,0.50358844
2.8271809,0.5053185
2.8103547,0.508344
2.7936282,0.51086736
2.7770011,0.5134028
2.7604735,0.51437074
2.7440438,0.5161264
2.7277122,0.516819
2.711477,0.51937747
2.6953394,0.5249135
2.6792972,0.52588665
2.663351,0.5284897
2.6474993,0.53494763
2.631742,0.53235215
2.6160786,0.5363728
2.6005085,0.54014313
2.5850313,0.54534477
2.5696461,0.5426714
2.5543516,0.55246377
2.5391486,0.55319595
2.524037,0.5570838
2.5090146,0.5589711
2.4940815,0.56523144
2.4792366,0.56187457
2.4644816,0.5649437
2.4498136,0.5739621
2.4352329,0.5735195
2.420739,0.579655
2.4063315,0.5813137
2.3920097,0.5796298
2.377773,0.5806554
2.363621,0.5850544
2.3495533,0.5857738
2.3355696,0.5905255
2.3216686,0.59406126
2.3078513,0.59824765
2.294115,0.6021465
2.280461,0.60638905
2.2668889,0.60841686
2.253397,0.60915744
2.2399855,0.6141022
2.2266536,0.61288387
2.213401,0.6116289
2.2002275,0.6133093
2.1871324,0.6179782
2.174115,0.6183359
2.1611753,0.6233831
2.1483126,0.629145
2.1355262,0.63121057
2.1228166,0.63567436
2.1101818,0.63638127
2.0976226,0.63430226
2.0851378,0.63391817
2.0727284,0.6422711
2.060392,0.64435315
2.0481286,0.6453729
2.0359385,0.6488801
2.0238216,0.65348315
2.0117764,0.6552285
1.9998028,0.65697145
1.9879006,0.672968
1.9760691,0.6700103
1.9643079,0.67032266
1.9526169,0.6784298
1.9409955,0.68024546
1.9294431,0.676786
1.9179596,0.6808382
1.9065444,0.6826278
1.8951972,0.68134695
1.8839173,0.68002635
1.8727047,0.6825458
1.8615594,0.6854613
1.8504798,0.68720925
1.8394659,0.691719
1.8285179,0.69466823
1.8176354,0.6960289
1.8068173,0.7001963
1.7960637,0.70479316
1.7853739,0.71308315
1.7747478,0.7210377
1.7641851,0.7278262
1.753685,0.7350845
1.7432475,0.7357341
1.7328722,0.7351071
1.7225585,0.73402447
1.7123064,0.7307805
1.7021154,0.73472893
1.6919845,0.732686
1.6819143,0.73750484
1.6719041,0.7336626
1.6619537,0.7363062
1.6520622,0.7389553
1.6422291,0.75355715
1.6324553,0.752282
1.6227394,0.757234
1.6130813,0.7604164
1.6034806,0.7640629
1.5939372,0.7722847
1.5844505,0.7805777
1.5750202,0.78801954
1.5656462,0.79180944
1.5563277,0.7988849
1.5470649,0.80225897
1.5378572,0.8089525
1.5287046,0.8156972
1.5196058,0.8172339
1.5105615,0.830305
1.5015709,0.8318888
1.4926344,0.83443516
1.4837507,0.83649284
1.4749194,0.83657444
1.466141,0.83514035
1.4574152,0.8386446
1.4487412,0.8406563
1.4401187,0.8472034
1.4315474,0.8527835
1.4230273,0.85737866
1.4145577,0.857889
1.4061385,0.86147517
1.3977697,0.8619542
1.3894506,0.8582243
1.3811809,0.8549448
1.3729603,0.866415
1.3647891,0.8737321
