energy,intensity
97.76732,0.004883227
92.828835,0.0052526067
88.18945,0.0055701295
83.8307,0.0058770827
79.735245,0.006197176
75.88682,0.0065210266
72.27017,0.006766923
68.87099,0.007090359
65.67586,0.0074463696
62.672165,0.007826441
59.848106,0.008268599
57.19261,0.008995568
54.69525,0.009552443
52.346306,0.010064384
50.136597,0.01062391
48.057564,0.011280084
46.10113,0.011884887
44.25976,0.0125927795
42.52636,0.012918107
40.894283,0.013611359
39.357292,0.014567567
37.909534,0.015775625
36.545517,0.016642809
35.260098,0.017393788
34.04844,0.018332902
32.906017,0.018903129
31.828575,0.020045301
30.812122,0.02101316
29.85292,0.022321213
28.947456,0.022994308
28.092442,0.023461355
27.284779,0.024155837
26.521572,0.02570034
25.800108,0.027038645
25.117828,0.028293848
24.472345,0.029930929
23.861408,0.03127589
23.282911,0.031896926
22.734882,0.032729734
22.215462,0.03408377
21.722916,0.035425264
21.255604,0.036545973
20.812004,0.03777884
20.390675,0.03930784
19.990267,0.04064045
19.609518,0.04183717
19.247244,0.04311544
18.902327,0.044325057
18.573725,0.045226615
18.260456,0.047196344
17.961601,0.048264816
17.676302,0.05044154
17.403744,0.052066576
17.143167,0.054172028
16.893862,0.055573642
16.655159,0.057242732
16.426428,0.058216758
16.207083,0.05963237
15.996571,0.06087138
15.794373,0.062432785
15.6,0.064282045
15.412999,0.06576916
15.232939,0.067262135
15.05942,0.06876095
14.892062,0.06963129
14.730514,0.0708389
14.574441,0.07219579
14.423531,0.07360612
14.277491,0.0745117
14.136047,0.07633675
13.998942,0.07807067
13.865933,0.08007732
13.73679,0.08120044
13.611302,0.08328374
13.48927,0.08387555
13.3705015,0.08527279
13.254824,0.08672969
13.142069,0.08813732
13.032082,0.08943878
12.924716,0.09108131
12.819836,0.09284675
12.717309,0.094338104
12.617017,0.096355066
12.518845,0.09658826
12.422684,0.09792087
12.328438,0.09961252
12.23601,0.10054313
12.145311,0.10153329
12.056257,0.10348873
11.968773,0.105216585
11.882783,0.1064672
11.798219,0.10852374
11.7150135,0.11028697
11.633108,0.11168814
11.552444,0.112216376
11.472969,0.11394377
11.394629,0.11593884
11.317378,0.117115475
11.241171,0.11997801
11.165965,0.12111149
11.091721,0.12283938
11.018401,0.12411843
10.945969,0.124807
10.874393,0.12569529
10.803641,0.12705657
10.733684,0.12876475
10.664492,0.13007715
10.596042,0.13050598
10.528306,0.13307111
10.461264,0.134688
10.394891,0.13589755
10.329167,0.13676225
10.264075,0.13777116
10.199594,0.13992454
10.135705,0.1412367
10.072394,0.14320661
10.0096445,0.14461254
9.947442,0.14602818
9.885775,0.14576301
9.824624,0.14755782
9.763982,0.14817658
9.703834,0.14887038
9.64417,0.15069555
9.584979,0.15170196
9.526253,0.15195063
9.467979,0.1540371
9.410151,0.15428871
9.3527565,0.15484706
9.295791,0.15657769
9.239244,0.159109
9.183109,0.15913202
9.12738,0.16010363
9.07205,0.162602
9.01711,0.16439861
8.962557,0.1647506
8.908382,0.16607879
8.854581,0.16692378
8.801149,0.16876283
8.74808,0.16887288
8.69537,0.16922799
8.643014,0.17058942
8.591007,0.17212963
8.539344,0.17138399
8.48802,0.17233466
8.437034,0.17346226
8.38638,0.1745966
8.336055,0.17617366
8.286055,0.17741214
8.236377,0.17768818
8.187016,0.17867073
8.13797,0.18072978
8.089236,0.1819084
8.04081,0.1842692
7.9926906,0.18746963
7.9448724,0.18859796
7.8973556,0.18945669
7.850135,0.19105914
7.80321,0.19053188
7.7565756,0.19139633
7.710231,0.19330075
7.664174,0.19607422
7.6184006,0.19849226
7.57291,0.20054822
7.5276995,0.20117347
7.482766,0.20354685
7.4381084,0.20574586
7.3937244,0.20629302
7.349611,0.20753121
7.3057675,0.20847824
7.2621903,0.20852849
7.218879,0.21078622
7.175831,0.21205072
7.133044,0.21210024
7.090517,0.21337232
7.0482473,0.21496126
7.0062337,0.21635404
6.9644732,0.21827736
6.9229665,0.2188513
6.881709,0.22026892
6.840701,0.21957108
6.79994,0.22131471
6.7594247,0.22221124
6.719154,0.22473268
6.679125,0.22618835
6.6393356,0.22688718
6.599786,0.22879736
6.560474,0.23050065
6.5213976,0.23154752
6.482556,0.23181394
6.443947,0.23421776
6.4055705,0.23528066
6.367422,0.23589139
6.3295035,0.23650093
6.291812,0.2360698
6.254346,0.23818108
6.217103,0.23797151
6.1800838,0.2398673
6.1432858,0.2423687
6.106708,0.2445344
6.0703483,0.24480203
6.034206,0.2479542
5.9982805,0.2478644
5.9625683,0.24837399
5.92707,0.25121015
5.891784,0.252098
5.856708,0.25162262
5.8218417,0.2526303
5.787183,0.25376654
5.752732,0.25579152
5.718485,0.25656098
5.684444,0.25656337
5.650605,0.25707102
5.616968,0.25666994
5.583532,0.2589878
5.550295,0.25844395
5.5172563,0.25972816
5.4844136,0.260356
5.4517684,0.26111528
5.419316,0.2608017
5.387058,0.2650612
5.3549924,0.267734
5.3231173,0.26906416
5.2914324,0.26998866
5.2599363,0.2725724
5.228627,0.2754554
5.1975055,0.27864265
5.166569,0.27988917
5.135817,0.2828385
5.105248,0.28453207
5.0748606,0.28580624
5.044654,0.28838187
5.0146275,0.28851464
4.9847803,0.2906795
4.955111,0.29139346
4.9256177,0.29387587
4.8963003,0.29429978
4.867158,0.2965098
4.8381886,0.30128908
4.809392,0.30294198
4.7807665,0.30597186
4.7523127,0.31101495
4.724026,0.3108775
4.695909,0.3116557
4.667959,0.3144558
4.640177,0.3132065
4.612559,0.31508186
4.585105,0.31918716
4.557816,0.32030112
4.530688,0.32398322
4.5037217,0.32769793
4.4769163,0.3273875
4.450271,0.32461244
4.423784,0.32606325
4.3974533,0.32603267
4.3712807,0.32914847
4.345264,0.33045024
4.3194017,0.33259702
4.293693,0.33441922
4.2681384,0.33625126
4.2427354,0.33638048
4.217483,0.3378777
4.192381,0.3400741
4.16743,0.3417614
4.142626,0.34415856
4.11797,0.3474544
4.09346,0.35113245
4.069097,0.3525205
4.0448785,0.35481086
4.0208044,0.35567015
3.9968739,0.35998136
3.9730854,0.3630512
3.949438,0.3670649
3.925932,0.3692627
3.9025662,0.37091497
3.8793387,0.3701387
3.85625,0.37235484
3.8332987,0.3743947
3.8104842,0.37682703
3.7878044,0.37716487
3.7652605,0.38366896
3.742851,0.38596606
3.7205741,0.38730043
3.6984303,0.3852968
3.6764178,0.39017332
3.6545374,0.38813487
3.632786,0.38765842
3.6111646,0.3905832
3.5896719,0.39352903
3.5683074,0.39649612
3.5470698,0.3978458
3.525958,0.4035253
3.5049734,0.4036607
3.484112,0.4058691
3.4633756,0.4072501
3.4427624,0.41179913
3.4222722,0.41299075
3.4019039,0.41631785
3.3816562,0.41515756
3.3615294,0.41807562
3.3415227,0.41949144
3.321635,0.4220031
3.3018653,0.4258502
3.2822137,0.42685017
3.2626784,0.42873773
3.24326,0.43130475
3.2239568,0.43433794
3.2047691,0.43535122
3.1856952,0.4370454
3.1667347,0.43943268
3.1478868,0.4381395
3.1291518,0.44215608
3.1105278,0.4473732
3.0920146,0.45287204
3.0736122,0.4548742
3.0553188,0.45593277
3.037134,0.45842347
3.0190578,0.45611364
3.0010896,0.4564232
2.9832275,0.46013036
2.9654722,0.46141505
2.9478228,0.4626986
2.930278,0.46646088
2.9128375,0.47075063
2.895501,0.47306734
2.878268,0.47539482
2.8611374,0.47925696
2.8441086,0.48059353
2.8271809,0.48167187
2.8103547,0.48300427
2.7936282,0.4866766
2.7770011,0.48775882
2.7604735,0.4922586
2.7440438,0.49361706
2.7277122,0.49763814
2.711477,0.50168973
2.6953394,0.5076591
2.6792972,0.50880015
2.663351,0.5121193
2.6474993,0.5173813
2.631742,0.5171657
2.6160786,0.5213732
2.6005085,0.5247744
2.5850313,0.5310084
2.5696461,0.5293804
2.5543516,0.5351104
2.5391486,0.537742
2.524037,0.53837043
2.5090146,0.5398561
2.4940815,0.5462934
2.4792366,0.54809886
2.4644816,0.5522649
2.4498136,0.5594276
2.4352329,0.5606884
2.420739,0.5655464
2.4063315,0.57406616
2.3920097,0.57142746
2.377773,0.5714872
2.363621,0.5739866
2.3495533,0.5740212
2.3355696,0.57776916
2.3216686,0.5809156
2.3078513,0.58974624
2.294115,0.59232724
2.280461,0.5942804
2.2668889,0.59687686
2.253397,0.5978707
2.2399855,0.60112596
2.2266536,0.60537785
2.213401,0.60768926
2.2002275,0.61066717
2.1871324,0.61498797
2.174115,0.61599624
2.1611753,0.6203569
2.1483126,0.6267773
2.1355262,0.6264467
2.1228166,0.63362044
2.1101818,0.63190454
2.0976226,0.6349951
2.0851378,0.63740313
2.0727284,0.644024
2.060392,0.64787996
2.0481286,0.65317833
2.0359385,0.6574462
2.0238216,0.6606644
2.0117764,0.6657035
1.9998028,0.67114294
1.9879006,0.67991334
1.9760691,0.68361646
1.9643079,0.6810508
1.9526169,0.6869892
1.9409955,0.69072807
1.9294431,0.6903444
1.9179596,0.6971298
1.9065444,0.69482434
1.8951972,0.69553363
1.8839173,0.69314086
1.8727047,0.69069445
1.8615594,0.6924876
1.8504798,0.6985973
1.8394659,0.6960644
1.8285179,0.70062935
1.8176354,0.7080225
1.8068173,0.7110552
1.7960637,0.7217859
1.7853739,0.73302674
1.7747478,0.7411006
1.7641851,0.7463616
1.753685,0.7529023
1.7432475,0.7511574
1.7328722,0.7489455
1.7225585,0.7504768
1.7123064,0.7515751
1.7021154,0.7526595
1.6919845,0.75115347
1.6819143,0.76083547
1.6719041,0.76060987
1.6619537,0.76560104
1.6520622,0.76842546
1.6422291,0.778779
1.6324553,0.7754291
1.6227394,0.77693737
1.6130813,0.78339094
1.6034806,0.7885347
1.5939372,0.79963845
1.5844505,0.8085539
1.5750202,0.8189314
1.5656462,0.821978
1.5563277,0.8287672
1.5470649,0.8271534
1.5378572,0.83257836
1.5287046,0.8347112
1.5196058,0.8416219
1.5105615,0.8519527
1.5015709,0.85802144
1.4926344,0.8646191
1.4837507,0.8624495
1.4749194,0.86662817
1.466141,0.86388695
1.4574152,0.8660675
1.4487412,0.8682435
1.4401187,0.8779833
1.4315474,0.88070214
1.4230273,0.88648576
1.4145577,0.889225
1.4061385,0.8929989
1.3977697,0.8931467
1.3894506,0.8916954
1.3811809,0.8975605
1.3729603,0.9029347
1.3647891,0.90993786
