energy,intensity
97.76732,0.005514999
92.828835,0.0058631925
88.18945,0.0062457966
83.8307,0.0065965494
79.735245,0.007108526
75.88682,0.007430715
72.27017,0.007762355
68.87099,0.00812437
65.67586,0.008574943
62.672165,0.009090266
59.848106,0.009664913
57.19261,0.010228012
54.69525,0.010774733
52.346306,0.011355402
50.136597,0.01205879
48.057564,0.012852642
46.10113,0.01344537
44.25976,0.014283855
42.52636,0.014917339
40.894283,0.01588584
39.357292,0.01663546
37.909534,0.017558293
36.545517,0.0187505
35.260098,0.019619534
34.04844,0.020339062
32.906017,0.021243935
31.828575,0.022214212
30.812122,0.023395123
29.85292,0.024609316
28.947456,0.02522847
28.092442,0.025763515
27.284779,0.02657941
26.521572,0.027864864
25.800108,0.029179212
25.117828,0.030405765
24.472345,0.031742223
23.861408,0.032707207
23.282911,0.033956803
22.734882,0.034807306
22.215462,0.036013663
21.722916,0.03773343
21.255604,0.0385972
20.812004,0.03928022
20.390675,0.04148171
19.990267,0.04278516
19.609518,0.044431146
19.247244,0.046135783
18.902327,0.047400523
18.573725,0.048160862
18.260456,0.04998196
17.961601,0.050449472
17.676302,0.052702576
17.403744,0.0541125
17.143167,0.056206655
16.893862,0.057896383
16.655159,0.059293337
16.426428,0.06011898
16.207083,0.06147065
15.996571,0.061916195
15.794373,0.063444965
15.6,0.06549317
15.412999,0.06685354
15.232939,0.06878866
15.05942,0.07069109
14.892062,0.071729496
14.730514,0.07271347
14.574441,0.07394086
14.423531,0.07577248
14.277491,0.076903805
14.136047,0.0796267
13.998942,0.080977544
13.865933,0.08332653
13.73679,0.08453311
13.611302,0.08584632
13.48927,0.08700001
13.3705015,0.08831631
13.254824,0.0891419
13.142069,0.0906808
13.032082,0.092171006
12.924716,0.094004914
12.819836,0.0953408
12.717309,0.09759508
12.617017,0.09923477
12.518845,0.10007101
12.422684,0.10119661
12.328438,0.10421002
12.23601,0.10553169
12.145311,0.10685827
12.056257,0.1082503
11.968773,0.11080223
11.882783,0.11166521
11.798219,0.11406694
11.7150135,0.115559414
11.633108,0.116747834
11.552444,0.117563024
11.472969,0.11888409
11.394629,0.119318806
11.317378,0.12096795
11.241171,0.12366269
11.165965,0.12482099
11.091721,0.12703231
11.018401,0.1282733
10.945969,0.13005154
10.874393,0.13064024
10.803641,0.13243744
10.733684,0.13465463
10.664492,0.13580084
10.596042,0.1359923
10.528306,0.13741939
10.461264,0.13920307
10.394891,0.14142014
10.329167,0.14281243
10.264075,0.14527564
10.199594,0.14761896
10.135705,0.14883621
10.072394,0.15092604
10.0096445,0.15259817
9.947442,0.15326016
9.885775,0.15340766
9.824624,0.15561987
9.763982,0.1559166
9.703834,0.15755698
9.64417,0.15905914
9.584979,0.1594349
9.526253,0.15996008
9.467979,0.16217257
9.410151,0.16309199
9.3527565,0.16362664
9.295791,0.16595829
9.239244,0.16760318
9.183109,0.16815294
9.12738,0.16933885
9.07205,0.17085226
9.01711,0.17221557
8.962557,0.1726152
8.908382,0.1739912
8.854581,0.17447391
8.801149,0.17520288
8.74808,0.1763488
8.69537,0.1785042
8.643014,0.1785766
8.591007,0.17872718
8.539344,0.17963833
8.48802,0.18063892
8.437034,0.18198891
8.38638,0.18360803
8.336055,0.18567535
8.286055,0.1858311
8.236377,0.18651082
8.187016,0.18701404
8.13797,0.18876618
8.089236,0.18927456
8.04081,0.19158937
7.9926906,0.19528845
7.9448724,0.19573215
7.8973556,0.19534557
7.850135,0.19726118
7.80321,0.19770244
7.7565756,0.19992156
7.710231,0.20150022
7.664174,0.20365925
7.6184006,0.205646
7.57291,0.20822468
7.5276995,0.20937875
7.482766,0.21170428
7.4381084,0.2120961
7.3937244,0.21287787
7.349611,0.21494654
7.3057675,0.21514237
7.2621903,0.21483238
7.218879,0.21551731
7.175831,0.2174178
7.133044,0.217092
7.090517,0.21818908
7.0482473,0.22073479
7.0062337,0.22340679
6.9644732,0.22349432
6.9229665,0.2247293
6.881709,0.2260766
6.840701,0.22700696
6.79994,0.22612357
6.7594247,0.2290915
6.719154,0.23122159
6.679125,0.23217213
6.6393356,0.23389187
6.599786,0.23573394
6.560474,0.23758955
6.5213976,0.23945892
6.482556,0.24066946
6.443947,0.24154761
6.4055705,0.2423141
6.367422,0.24387996
6.3295035,0.24488178
6.291812,0.24600232
6.254346,0.25026444
6.217103,0.2509454
6.1800838,0.2513903
6.1432858,0.25632647
6.106708,0.25928974
6.0703483,0.25832894
6.034206,0.26132134
5.9982805,0.26155385
5.9625683,0.26251107
5.92707,0.2633477
5.891784,0.26443154
5.856708,0.26452634
5.8218417,0.26685947
5.787183,0.26971328
5.752732,0.2705706
5.718485,0.2707932
5.684444,0.27164778
5.650605,0.2726316
5.616968,0.273488
5.583532,0.2740846
5.550295,0.27572593
5.5172563,0.2765868
5.4844136,0.2787731
5.4517684,0.27724338
5.419316,0.27876952
5.387058,0.2809784
5.3549924,0.28456068
5.3231173,0.28653768
5.2914324,0.28811607
5.2599363,0.29122278
5.228627,0.29366153
5.1975055,0.29849577
5.166569,0.2984547
5.135817,0.303779
5.105248,0.3040323
5.0748606,0.30843017
5.044654,0.30912465
5.0146275,0.31141037
4.9847803,0.31283766
4.955111,0.31529737
4.9256177,0.3165952
4.8963003,0.31878763
4.867158,0.32218942
4.8381886,0.32682207
4.809392,0.32923222
4.7807665,0.3339395
4.7523127,0.33639768
4.724026,0.34025782
4.695909,0.3388908
4.667959,0.34185395
4.640177,0.3431177
4.612559,0.34564477
4.585105,0.3523104
4.557816,0.3528254
4.530688,0.35493803
4.5037217,0.35980612
4.4769163,0.35822728
4.450271,0.35661647
4.423784,0.3585875
4.3974533,0.36023885
4.3712807,0.3622295
4.345264,0.36356217
4.3194017,0.36573896
4.293693,0.36979046
4.2681384,0.37047225
4.2427354,0.37063512
4.217483,0.37285432
4.192381,0.37300688
4.16743,0.3750657
4.142626,0.37924096
4.11797,0.38257045
4.09346,0.3853936
4.069097,0.38680816
4.0448785,0.38786665
4.0208044,0.38892385
3.9968739,0.39197972
3.9730854,0.39524114
3.949438,0.39797562
3.925932,0.40239447
3.9025662,0.4066658
3.8793387,0.40629095
3.85625,0.40796977
3.8332987,0.41003332
3.8104842,0.41344175
3.7878044,0.41572547
3.7652605,0.4207235
3.742851,0.42052436
3.7205741,0.42128444
3.6984303,0.4200738
3.6764178,0.4253561
3.6545374,0.42551666
3.632786,0.42626423
3.6111646,0.42841405
3.5896719,0.4352301
3.5683074,0.437836
3.5470698,0.43963805
3.525958,0.44618607
3.5049734,0.44865006
3.484112,0.45279637
3.4633756,0.4544584
3.4427624,0.46013442
3.4222722,0.46097836
3.4019039,0.46437922
3.3816562,0.46350664
3.3615294,0.4660657
3.3415227,0.46689892
3.321635,0.47188205
3.3018653,0.4742673
3.2822137,0.47644266
3.2626784,0.47840452
3.24326,0.47992453
3.2239568,0.483925
3.2047691,0.48523512
3.1856952,0.48699993
3.1667347,0.4908337
3.1478868,0.4937726
3.1291518,0.4985867
3.1105278,0.5034408
3.0920146,0.50739515
3.0736122,0.5101967
3.0553188,0.5108731
3.037134,0.5163245
3.0190578,0.5141207
3.0010896,0.5162303
2.9832275,0.5202956
2.9654722,0.5221856
2.9478228,0.524326
2.930278,0.5282092
2.9128375,0.5276299
2.895501,0.5302871
2.878268,0.5327047
2.8611374,0.53614813
2.8441086,0.5388473
2.8271809,0.5405314
2.8103547,0.5409235
2.7936282,0.545983
2.7770011,0.54794365
2.7604735,0.5509611
2.7440438,0.5550543
2.7277122,0.55571365
2.711477,0.558505
2.6953394,0.56535375
2.6792972,0.56521297
2.663351,0.57077974
2.6474993,0.57886326
2.631742,0.5792919
2.6160786,0.58109367
2.6005085,0.58513176
2.5850313,0.5920083
2.5696461,0.5882004
2.5543516,0.5948516
2.5391486,0.5972685
2.524037,0.6022839
2.5090146,0.60357296
2.4940815,0.604856
2.4792366,0.60202944
2.4644816,0.60474926
2.4498136,0.60896343
2.4352329,0.6126095
2.420739,0.62048006
2.4063315,0.6260069
2.3920097,0.6300588
2.377773,0.6335256
2.363621,0.63608915
2.3495533,0.6330935
2.3355696,0.63595057
2.3216686,0.6378803
2.3078513,0.64642245
2.294115,0.64807576
2.280461,0.6500441
2.2668889,0.65329486
2.253397,0.656239
2.2399855,0.6578972
2.2266536,0.65726745
2.213401,0.662516
2.2002275,0.66284966
2.1871324,0.6681474
2.174115,0.66913974
2.1611753,0.6721374
2.1483126,0.680559
2.1355262,0.6812311
2.1228166,0.6849674
2.1101818,0.6921679
2.0976226,0.6876515
2.0851378,0.69455683
2.0727284,0.7025716
2.060392,0.7036041
2.0481286,0.7032046
2.0359385,0.7084857
2.0238216,0.71416384
2.0117764,0.71591127
1.9998028,0.72056115
1.9879006,0.73072404
1.9760691,0.7314219
1.9643079,0.73321164
1.9526169,0.73946244
1.9409955,0.7442642
1.9294431,0.7426945
1.9179596,0.75092995
1.9065444,0.7466599
1.8951972,0.7484464
1.8839173,0.74714184
1.8727047,0.74773496
1.8615594,0.74674666
1.8504798,0.75357395
1.8394659,0.7517654
1.8285179,0.7578561
1.8176354,0.7615938
1.8068173,0.76494735
1.7960637,0.7780237
1.7853739,0.7851242
1.7747478,0.7947384
1.7641851,0.80320376
1.753685,0.8075984
1.7432475,0.80242956
1.7328722,0.8034598
1.7225585,0.80489576
1.7123064,0.80250055
1.7021154,0.8081592
1.6919845,0.80913275
1.6819143,0.8135452
1.6719041,0.81624305
1.6619537,0.8211301
1.6520622,0.82692623
1.6422291,0.83408993
1.6324553,0.8346323
1.6227394,0.8382862
1.6130813,0.8410529
1.6034806,0.84291637
1.5939372,0.85069865
1.5844505,0.8612955
1.5750202,0.8682979
1.5656462,0.8725684
1.5563277,0.8810614
1.5470649,0.88210905
1.5378572,0.8892807
1.5287046,0.89365417
1.5196058,0.89852697
1.5105615,0.9106417
1.5015709,0.9180296
1.4926344,0.9225524
1.4837507,0.91632193
1.4749194,0.9158964
1.466141,0.914937
1.4574152,0.9204149
1.4487412,0.91639555
1.4401187,0.92743284
1.4315474,0.93856955
1.4230273,0.9401039
1.4145577,0.94419146
1.4061385,0.9451939
1.3977697,0.9409753
1.3894506,0.9361495
1.3811809,0.9396502
1.3729603,0.9473933
1.3647891,0.9546628
