energy,intensity
97.76732,0.004526462
92.828835,0.0049238293
88.18945,0.0052982154
83.8307,0.005660377
79.735245,0.00620629
75.88682,0.006549754
72.27017,0.006817198
68.87099,0.0070798076
65.67586,0.0072693387
62.672165,0.0075365743
59.848106,0.008050047
57.19261,0.008538167
54.69525,0.008967874
52.346306,0.0095785195
50.136597,0.010000678
48.057564,0.011023032
46.10113,0.0113332
44.25976,0.012149486
42.52636,0.012456745
40.894283,0.013255971
39.357292,0.014290618
37.909534,0.015334753
36.545517,0.01624513
35.260098,0.01689918
34.04844,0.017906059
32.906017,0.018616047
31.828575,0.019634351
30.812122,0.020565068
29.85292,0.021858724
28.947456,0.022492249
28.092442,0.02307335
27.284779,0.023942776
26.521572,0.025261953
25.800108,0.026559839
25.117828,0.027628452
24.472345,0.028832277
23.861408,0.02993593
23.282911,0.031179095
22.734882,0.032186374
22.215462,0.033625834
21.722916,0.034990396
21.255604,0.03603317
20.812004,0.037499513
20.390675,0.039200928
19.990267,0.0408222
19.609518,0.042355962
19.247244,0.043870527
18.902327,0.045017038
18.573725,0.046048213
18.260456,0.047634088
17.961601,0.048831213
17.676302,0.05081154
17.403744,0.05277639
17.143167,0.055316497
16.893862,0.056519937
16.655159,0.058158956
16.426428,0.0586149
16.207083,0.059453018
15.996571,0.060099144
15.794373,0.062340777
15.6,0.06512051
15.412999,0.06699497
15.232939,0.068788655
15.05942,0.07064282
14.892062,0.071192734
14.730514,0.07236816
14.574441,0.07344227
14.423531,0.07486563
14.277491,0.07598768
14.136047,0.07808454
13.998942,0.07936839
13.865933,0.08133508
13.73679,0.08252292
13.611302,0.08360405
13.48927,0.08366007
13.3705015,0.08483802
13.254824,0.085907355
13.142069,0.08675499
13.032082,0.08810054
12.924716,0.08945084
12.819836,0.091089584
12.717309,0.09250961
12.617017,0.09433925
12.518845,0.09565953
12.422684,0.09657549
12.328438,0.09884628
12.23601,0.09917723
12.145311,0.100695655
12.056257,0.10083672
11.968773,0.10224162
11.882783,0.10273689
11.798219,0.10378121
11.7150135,0.10551077
11.633108,0.105878845
11.552444,0.10605202
11.472969,0.10653331
11.394629,0.10777593
11.317378,0.10921788
11.241171,0.11073401
11.165965,0.11180522
11.091721,0.11340531
11.018401,0.11402806
10.945969,0.11471622
10.874393,0.11573857
10.803641,0.11649654
10.733684,0.11725581
10.664492,0.117948435
10.596042,0.11836748
10.528306,0.11906002
10.461264,0.119823016
10.394891,0.12023858
10.329167,0.121074
10.264075,0.121983394
10.199594,0.123894475
10.135705,0.12539238
10.072394,0.12719056
10.0096445,0.12820569
9.947442,0.12864213
9.885775,0.12915057
9.824624,0.13039821
9.763982,0.13098481
9.703834,0.13082322
9.64417,0.13216
9.584979,0.13297613
9.526253,0.13303308
9.467979,0.13408212
9.410151,0.13490613
9.3527565,0.13503471
9.295791,0.13680027
9.239244,0.13771616
9.183109,0.13808323
9.12738,0.13908556
9.07205,0.14097512
9.01711,0.14239821
8.962557,0.1426163
8.908382,0.14372832
8.854581,0.1439451
8.801149,0.14448872
8.74808,0.14561443
8.69537,0.14591214
8.643014,0.14696416
8.591007,0.14624673
8.539344,0.14483394
8.48802,0.14562409
8.437034,0.14581509
8.38638,0.14678244
8.336055,0.14923768
8.286055,0.15083979
8.236377,0.14980859
8.187016,0.14991301
8.13797,0.15188801
8.089236,0.15136577
8.04081,0.15281963
7.9926906,0.15546706
7.9448724,0.15621987
7.8973556,0.15623966
7.850135,0.15764232
7.80321,0.15672784
7.7565756,0.15720169
7.710231,0.15814659
7.664174,0.16070879
7.6184006,0.16243744
7.57291,0.16408488
7.5276995,0.16439465
7.482766,0.16577026
7.4381084,0.1654955
7.3937244,0.16354051
7.349611,0.16412663
7.3057675,0.16342068
7.2621903,0.16310051
7.218879,0.16428035
7.175831,0.1658735
7.133044,0.16615537
7.090517,0.16643451
7.0482473,0.16722646
7.0062337,0.16926642
6.9644732,0.1697597
6.9229665,0.17088245
6.881709,0.17095658
6.840701,0.17081292
6.79994,0.1707682
6.7594247,0.17200676
6.719154,0.17401102
6.679125,0.17548908
6.6393356,0.17763527
6.599786,0.17825934
6.560474,0.17943826
6.5213976,0.17984489
6.482556,0.17924106
6.443947,0.18020222
6.4055705,0.18071462
6.367422,0.18213966
6.3295035,0.18150872
6.291812,0.18097916
6.254346,0.1836899
6.217103,0.18327081
6.1800838,0.18425104
6.1432858,0.18559124
6.106708,0.18753588
6.0703483,0.18698324
6.034206,0.18822362
5.9982805,0.18801834
5.9625683,0.18865696
5.92707,0.18905126
5.891784,0.19055352
5.856708,0.1908262
5.8218417,0.19072089
5.787183,0.19223979
5.752732,0.19250682
5.718485,0.1922619
5.684444,0.19162355
5.650605,0.19199952
5.616968,0.1914675
5.583532,0.19209349
5.550295,0.19193456
5.5172563,0.19216195
5.4844136,0.19278273
5.4517684,0.1914046
5.419316,0.19214849
5.387058,0.1931642
5.3549924,0.19377808
5.3231173,0.19493845
5.2914324,0.19418311
5.2599363,0.19741814
5.228627,0.19846132
5.1975055,0.20104775
5.166569,0.20042315
5.135817,0.20247221
5.105248,0.20211884
5.0748606,0.20318589
5.044654,0.2036823
5.0146275,0.20388755
4.9847803,0.20452528
4.955111,0.20692305
4.9256177,0.20698185
4.8963003,0.20703392
4.867158,0.2085721
4.8381886,0.21222408
4.809392,0.21198384
4.7807665,0.2161411
4.7523127,0.2189643
4.724026,0.2176604
4.695909,0.21741621
4.667959,0.21918502
4.640177,0.21799171
4.612559,0.21850923
4.585105,0.22029305
4.557816,0.22049597
4.530688,0.22229739
4.5037217,0.2255646
4.4769163,0.22350654
4.450271,0.22190562
4.423784,0.22192016
4.3974533,0.22258794
4.3712807,0.22209208
4.345264,0.22475965
4.3194017,0.2276195
4.293693,0.22965935
4.2681384,0.22899134
4.2427354,0.22779329
4.217483,0.22812346
4.192381,0.22827606
4.16743,0.23034024
4.142626,0.22996525
4.11797,0.2345185
4.09346,0.23396997
4.069097,0.23519225
4.0448785,0.23516326
4.0208044,0.23530617
3.9968739,0.23762405
3.9730854,0.24179025
3.949438,0.24470992
3.925932,0.24784093
3.9025662,0.24895243
3.8793387,0.24650936
3.85625,0.24497028
3.8332987,0.24738486
3.8104842,0.24810322
3.7878044,0.24843769
3.7652605,0.25166208
3.742851,0.25569278
3.7205741,0.25507534
3.6984303,0.25483423
3.6764178,0.25675535
3.6545374,0.25709957
3.632786,0.25523847
3.6111646,0.25596175
3.5896719,0.26134056
3.5683074,0.2637198
3.5470698,0.26325017
3.525958,0.26956648
3.5049734,0.27055842
3.484112,0.2715527
3.4633756,0.2723393
3.4427624,0.27671385
3.4222722,0.27603492
3.4019039,0.27790126
3.3816562,0.27591217
3.3615294,0.27864504
3.3415227,0.27835616
3.321635,0.27805385
3.3018653,0.2794986
3.2822137,0.28072923
3.2626784,0.28151923
3.24326,0.28163642
3.2239568,0.2830973
3.2047691,0.2838853
3.1856952,0.2837602
3.1667347,0.28729492
3.1478868,0.2917852
3.1291518,0.29283553
3.1105278,0.2945888
3.0920146,0.29541257
3.0736122,0.29883626
3.0553188,0.301339
3.037134,0.30075067
3.0190578,0.2984596
3.0010896,0.29782516
2.9832275,0.2993648
2.9654722,0.3023824
2.9478228,0.3014813
2.930278,0.30254242
2.9128375,0.30460334
2.895501,0.30617616
2.878268,0.3069995
2.8611374,0.30934554
2.8441086,0.31221968
2.8271809,0.31203288
2.8103547,0.31364253
2.7936282,0.3152603
2.7770011,0.31453115
2.7604735,0.31878352
2.7440438,0.32095698
2.7277122,0.31968185
2.711477,0.32132798
2.6953394,0.32837424
2.6792972,0.32627216
2.663351,0.3301355
2.6474993,0.3365037
2.631742,0.33575734
2.6160786,0.33887872
2.6005085,0.34062827
2.5850313,0.34575984
2.5696461,0.3441538
2.5543516,0.3484903
2.5391486,0.3497183
2.524037,0.3523879
2.5090146,0.3530497
2.4940815,0.35662028
2.4792366,0.35318673
2.4644816,0.3550064
2.4498136,0.35980156
2.4352329,0.35986707
2.420739,0.36532372
2.4063315,0.37355068
2.3920097,0.37335697
2.377773,0.37375876
2.363621,0.37691894
2.3495533,0.3754643
2.3355696,0.3767789
2.3216686,0.37903494
2.3078513,0.38287854
2.294115,0.3851711
2.280461,0.38683993
2.2668889,0.3894766
2.253397,0.3879388
2.2399855,0.38961264
2.2266536,0.39064002
2.213401,0.39199403
2.2002275,0.38839626
2.1871324,0.39038938
2.174115,0.39105576
2.1611753,0.39575073
2.1483126,0.4035322
2.1355262,0.3998235
2.1228166,0.406325
2.1101818,0.40634733
2.0976226,0.40323752
2.0851378,0.40321246
2.0727284,0.41158637
2.060392,0.41475615
2.0481286,0.41191754
2.0359385,0.4147408
2.0238216,0.4200964
2.0117764,0.42152792
1.9998028,0.42550534
1.9879006,0.4313429
1.9760691,0.42914492
1.9643079,0.4320844
1.9526169,0.4398815
1.9409955,0.43727392
1.9294431,0.43800896
1.9179596,0.4410104
1.9065444,0.43831486
1.8951972,0.43787184
1.8839173,0.4350935
1.8727047,0.43265414
1.8615594,0.4348541
1.8504798,0.43392357
1.8394659,0.43494153
1.8285179,0.43953267
1.8176354,0.442564
1.8068173,0.44642037
1.7960637,0.45232996
1.7853739,0.4570733
1.7747478,0.46595168
1.7641851,0.4695653
1.753685,0.48107848
1.7432475,0.47395453
1.7328722,0.47050214
1.7225585,0.46867886
1.7123064,0.4685143
1.7021154,0.47302714
1.6919845,0.4707056
1.6819143,0.47611624
1.6719041,0.47331673
1.6619537,0.47352704
1.6520622,0.4741629
1.6422291,0.4831969
1.6324553,0.4811934
1.6227394,0.48183545
1.6130813,0.4878738
1.6034806,0.4880758
1.5939372,0.49692473
1.5844505,0.50723803
1.5750202,0.5176569
1.5656462,0.5179716
1.5563277,0.52153975
1.5470649,0.52278364
1.5378572,0.522606
1.5287046,0.5262103
1.5196058,0.5303174
1.5105615,0.5339737
1.5015709,0.5424941
1.4926344,0.54476845
1.4837507,0.54019415
1.4749194,0.54047257
1.466141,0.53676975
1.4574152,0.5394849
1.4487412,0.53468955
1.4401187,0.5444505
1.4315474,0.5527865
1.4230273,0.55507493
1.4145577,0.56250805
1.4061385,0.5632921
1.3977697,0.5583466
1.3894506,0.5538448
1.3811809,0.5540042
1.3729603,0.55467486
1.3647891,0.56065804
