energy,intensity
97.76732,0.0028132445
92.828835,0.0029785647
88.18945,0.0032753353
83.8307,0.0034152959
79.735245,0.0036408405
75.88682,0.003935598
72.27017,0.004238124
68.87099,0.0044050966
65.67586,0.004696856
62.672165,0.0050379094
59.848106,0.005245279
57.19261,0.0055142315
54.69525,0.005945367
52.346306,0.0063023865
50.136597,0.0065439222
48.057564,0.007061393
46.10113,0.007558094
44.25976,0.0080367215
42.52636,0.008620615
40.894283,0.009080162
39.357292,0.009637859
37.909534,0.010159275
36.545517,0.010846658
35.260098,0.01094325
34.04844,0.0115461005
32.906017,0.012035287
31.828575,0.012225808
30.812122,0.012758833
29.85292,0.013253981
28.947456,0.0137564195
28.092442,0.014343244
27.284779,0.015153994
26.521572,0.01552158
25.800108,0.016082363
25.117828,0.01666386
24.472345,0.01732609
23.861408,0.017967647
23.282911,0.01866376
22.734882,0.019257486
22.215462,0.019920362
21.722916,0.020606196
21.255604,0.02153785
20.812004,0.022363534
20.390675,0.022896906
19.990267,0.02357364
19.609518,0.02432781
19.247244,0.024729084
18.902327,0.025141876
18.573725,0.025997479
18.260456,0.026622552
17.961601,0.027146429
17.676302,0.027605131
17.403744,0.028246224
17.143167,0.028951088
16.893862,0.029464353
16.655159,0.029843006
16.426428,0.030546103
16.207083,0.0310716
15.996571,0.031707633
15.794373,0.03222857
15.6,0.03283975
15.412999,0.033473913
15.232939,0.034084253
15.05942,0.03467
14.892062,0.0353036
14.730514,0.0363814
14.574441,0.03697043
14.423531,0.037533574
14.277491,0.03824832
14.136047,0.03878524
13.998942,0.03903533
13.865933,0.039331168
13.73679,0.039595135
13.611302,0.040040255
13.48927,0.040402483
13.3705015,0.04111464
13.254824,0.041254167
13.142069,0.0417187
13.032082,0.04221019
12.924716,0.04281384
12.819836,0.043305814
12.717309,0.04385493
12.617017,0.04457789
12.518845,0.045188673
12.422684,0.045772452
12.328438,0.046151835
12.23601,0.04682709
12.145311,0.046817794
12.056257,0.046892393
11.968773,0.046840504
11.882783,0.04745465
11.798219,0.048010357
11.7150135,0.047855116
11.633108,0.048473142
11.552444,0.049094662
11.472969,0.04864303
11.394629,0.04830785
11.317378,0.04799552
11.241171,0.04777142
11.165965,0.047377307
11.091721,0.047563404
11.018401,0.04758313
10.945969,0.048063967
10.874393,0.048280098
10.803641,0.047957286
10.733684,0.048439108
10.664492,0.048208274
10.596042,0.047491007
10.528306,0.04810714
10.461264,0.048450164
10.394891,0.048235238
10.329167,0.048577327
10.264075,0.048283614
10.199594,0.04801891
10.135705,0.04785558
10.072394,0.047615297
10.0096445,0.047550812
9.947442,0.0479212
9.885775,0.047668837
9.824624,0.04792855
9.763982,0.048077382
9.703834,0.04822562
9.64417,0.04799653
9.584979,0.048217114
9.526253,0.048171096
9.467979,0.0479687
9.410151,0.04814766
9.3527565,0.048443116
9.295791,0.048544552
9.239244,0.049038272
9.183109,0.04945675
9.12738,0.049559675
9.07205,0.049221143
9.01711,0.04863458
8.962557,0.048119828
8.908382,0.04763753
8.854581,0.047516648
8.801149,0.04685563
8.74808,0.046973735
8.69537,0.046882425
8.643014,0.046914186
8.591007,0.047071315
8.539344,0.047143362
8.48802,0.04789928
8.437034,0.048102614
8.38638,0.04774329
8.336055,0.04790076
8.286055,0.04696204
8.236377,0.046098344
8.187016,0.045000527
8.13797,0.045137793
8.089236,0.04496057
8.04081,0.045592837
7.9926906,0.045640036
7.9448724,0.045640342
7.8973556,0.045224845
7.850135,0.045358036
7.80321,0.044699557
7.7565756,0.044780932
7.710231,0.045097224
7.664174,0.045557857
7.6184006,0.046165425
7.57291,0.046922524
7.5276995,0.047397397
7.482766,0.04729357
7.4381084,0.047430966
7.3937244,0.047568273
7.349611,0.048496448
7.3057675,0.047991768
7.2621903,0.04737919
7.218879,0.04831775
7.175831,0.04835445
7.133044,0.04818607
7.090517,0.04939744
7.0482473,0.049539033
7.0062337,0.049473085
6.9644732,0.04903936
6.9229665,0.049438342
6.881709,0.048995588
6.840701,0.049289294
6.79994,0.04931759
6.7594247,0.0496132
6.719154,0.04936981
6.679125,0.048958518
6.6393356,0.05023696
6.599786,0.049602125
6.560474,0.04962243
6.5213976,0.04936263
6.482556,0.050330974
6.443947,0.05102722
6.4055705,0.051503092
6.367422,0.053124063
6.3295035,0.05338492
6.291812,0.053820215
6.254346,0.054084532
6.217103,0.054876037
6.1800838,0.05549871
6.1432858,0.056186
6.106708,0.05586807
6.0703483,0.055125333
6.034206,0.05557595
5.9982805,0.056029953
5.9625683,0.05691396
5.92707,0.058480836
5.891784,0.060064435
5.856708,0.060610276
5.8218417,0.060723625
5.787183,0.060208343
5.752732,0.060316283
5.718485,0.06093164
5.684444,0.061552197
5.650605,0.0624352
5.616968,0.063844055
5.583532,0.06448667
5.550295,0.06546199
5.5172563,0.066117406
5.4844136,0.066513345
5.4517684,0.06537879
5.419316,0.06583734
5.387058,0.066096686
5.3549924,0.06656033
5.3231173,0.06627633
5.2914324,0.06797781
5.2599363,0.06831579
5.228627,0.06865538
5.1975055,0.06787808
5.166569,0.06828452
5.135817,0.0677737
5.105248,0.06931822
5.0748606,0.0708788
5.044654,0.072599635
5.0146275,0.073758885
4.9847803,0.074929416
4.955111,0.07581802
4.9256177,0.076050706
4.8963003,0.07709972
4.867158,0.07815854
4.8381886,0.078401245
4.809392,0.07962616
4.7807665,0.08025492
4.7523127,0.081958696
4.724026,0.08191107
4.695909,0.08271101
4.667959,0.08227222
4.640177,0.08307802
4.612559,0.08381177
4.585105,0.08439284
4.557816,0.085216984
4.530688,0.08644898
4.5037217,0.08745064
4.4769163,0.08878581
4.450271,0.089399055
4.423784,0.08919514
4.3974533,0.08906822
4.3712807,0.09034957
4.345264,0.090137996
4.3194017,0.09093005
4.293693,0.091728345
4.2681384,0.09363959
4.2427354,0.093086965
4.217483,0.09528116
4.192381,0.096198335
4.16743,0.09633836
4.142626,0.09586272
4.11797,0.09617198
4.09346,0.09683659
4.069097,0.09822
4.0448785,0.099886
4.0208044,0.099580415
3.9968739,0.10099475
3.9730854,0.10169091
3.949438,0.10239178
3.925932,0.1015241
3.9025662,0.10324917
3.8793387,0.10349274
3.85625,0.10392394
3.8332987,0.10416703
3.8104842,0.105267465
3.7878044,0.105226316
3.7652605,0.10643532
3.742851,0.10716965
3.7205741,0.10859257
3.6984303,0.11002866
3.6764178,0.111675754
3.6545374,0.1145316
3.632786,0.11641755
3.6111646,0.11560538
3.5896719,0.11589267
3.5683074,0.11729932
3.5470698,0.11656759
3.525958,0.11685336
3.5049734,0.118589595
3.484112,0.1184654
3.4633756,0.11791581
3.4427624,0.12094359
3.4222722,0.12166772
3.4019039,0.12143495
3.3816562,0.1222695
3.3615294,0.12581179
3.3415227,0.12449914
3.321635,0.12535395
3.3018653,0.12632456
3.2822137,0.12807718
3.2626784,0.12862132
3.24326,0.12983954
3.2239568,0.12994075
3.2047691,0.13139898
3.1856952,0.13229975
3.1667347,0.13332137
3.1478868,0.13388878
3.1291518,0.1346904
3.1105278,0.13432877
3.0920146,0.13642563
3.0736122,0.13712423
3.0553188,0.13758847
3.037134,0.13984787
3.0190578,0.14056483
3.0010896,0.14007469
2.9832275,0.13945189
2.9654722,0.14224717
2.9478228,0.14186628
2.930278,0.14358366
2.9128375,0.14469284
2.895501,0.14505723
2.878268,0.1454208
2.8611374,0.14718041
2.8441086,0.14652865
2.8271809,0.14817706
2.8103547,0.14958136
2.7936282,0.15086713
2.7770011,0.15281712
2.7604735,0.15662774
2.7440438,0.15663867
2.7277122,0.1593081
2.711477,0.16026197
2.6953394,0.15798628
2.6792972,0.1601527
2.663351,0.16083874
2.6474993,0.15960595
2.631742,0.1608377
2.6160786,0.16291179
2.6005085,0.16249003
2.5850313,0.163744
2.5696461,0.16613832
2.5543516,0.16997792
2.5391486,0.16899236
2.524037,0.17057993
2.5090146,0.17131162
2.4940815,0.1705892
2.4792366,0.17043822
2.4644816,0.17204835
2.4498136,0.17515483
2.4352329,0.17545757
2.420739,0.17710848
2.4063315,0.1810377
2.3920097,0.18348865
2.377773,0.18504569
2.363621,0.18584621
2.3495533,0.18773215
2.3355696,0.18558928
2.3216686,0.18544851
2.3078513,0.18687369
2.294115,0.18656726
2.280461,0.18911819
2.2668889,0.18928881
2.253397,0.19042215
2.2399855,0.19415753
2.2266536,0.19776765
2.213401,0.19747439
2.2002275,0.20162913
2.1871324,0.1980188
2.174115,0.19736616
2.1611753,0.19922031
2.1483126,0.20176613
2.1355262,0.2016131
2.1228166,0.20521633
2.1101818,0.20592856
2.0976226,0.20733476
2.0851378,0.20613666
2.0727284,0.20649436
2.060392,0.20808342
2.0481286,0.2105711
2.0359385,0.21308109
2.0238216,0.21561356
2.0117764,0.21564026
1.9998028,0.21674971
1.9879006,0.21603695
1.9760691,0.21585953
1.9643079,0.21770689
1.9526169,0.22068503
1.9409955,0.22294231
1.9294431,0.22239408
1.9179596,0.22429392
1.9065444,0.22373116
1.8951972,0.22852154
1.8839173,0.22950408
1.8727047,0.2337884
1.8615594,0.23089425
1.8504798,0.23443651
1.8394659,0.23327243
1.8285179,0.23327819
1.8176354,0.2336754
1.8068173,0.23547669
1.7960637,0.23526824
1.7853739,0.23708384
1.7747478,0.23891285
1.7641851,0.24425633
1.753685,0.24426849
1.7432475,0.24948266
1.7328722,0.25265378
1.7225585,0.255643
1.7123064,0.25250548
1.7021154,0.25508454
1.6919845,0.2514582
1.6819143,0.25425988
1.6719041,0.25969392
1.6619537,0.25928122
1.6520622,0.26303288
1.6422291,0.27102393
1.6324553,0.26841778
1.6227394,0.26308393
1.6130813,0.2644339
1.6034806,0.265564
1.5939372,0.26692605
1.5844505,0.26967078
1.5750202,0.27405363
1.5656462,0.27476624
1.5563277,0.2743103
1.5470649,0.27242988
1.5378572,0.273116
1.5287046,0.2726121
1.5196058,0.2761572
1.5105615,0.27829167
1.5015709,0.28237763
1.4926344,0.28260773
1.4837507,0.28454465
1.4749194,0.28403133
1.466141,0.28523636
1.4574152,0.2914315
1.4487412,0.29994777
1.4401187,0.3017437
1.4315474,0.30710357
1.4230273,0.30843168
1.4145577,0.30488446
1.4061385,0.30309248
1.3977697,0.305687
1.3894506,0.30725577
1.3811809,0.30935848
1.3729603,0.31623882
1.3647891,0.3210606
