energy,intensity
97.76732,0.0023895856
92.828835,0.0025127972
88.18945,0.002673827
83.8307,0.0027955156
79.735245,0.0029163184
75.88682,0.0030929395
72.27017,0.003267831
68.87099,0.0033869124
65.67586,0.0035793472
62.672165,0.003803071
59.848106,0.004018952
57.19261,0.0043199062
54.69525,0.004563651
52.346306,0.004817023
50.136597,0.005043821
48.057564,0.0053981096
46.10113,0.0056271944
44.25976,0.0060008606
42.52636,0.0064761406
40.894283,0.006699063
39.357292,0.0070529925
37.909534,0.0074469396
36.545517,0.0078044236
35.260098,0.008016805
34.04844,0.008419476
32.906017,0.008899488
31.828575,0.0091208415
30.812122,0.0095750205
29.85292,0.009882675
28.947456,0.010267109
28.092442,0.010385593
27.284779,0.010866133
26.521572,0.011096628
25.800108,0.011716748
25.117828,0.0121796625
24.472345,0.012367293
23.861408,0.01268394
23.282911,0.013061511
22.734882,0.013168605
22.215462,0.0134274345
21.722916,0.01408313
21.255604,0.014580783
20.812004,0.015240723
20.390675,0.01569819
19.990267,0.01612168
19.609518,0.017046144
19.247244,0.017310359
18.902327,0.01741479
18.573725,0.017801132
18.260456,0.017927445
17.961601,0.017841395
17.676302,0.017923813
17.403744,0.01816276
17.143167,0.019032266
16.893862,0.019313132
16.655159,0.019175442
16.426428,0.019398216
16.207083,0.019952185
15.996571,0.02007847
15.794373,0.020289507
15.6,0.020775214
15.412999,0.021498738
15.232939,0.021919826
15.05942,0.022051759
14.892062,0.02261675
14.730514,0.023037443
14.574441,0.022785556
14.423531,0.022973573
14.277491,0.023310354
14.136047,0.023954835
13.998942,0.023410816
13.865933,0.024264265
13.73679,0.02398984
13.611302,0.024451252
13.48927,0.024618577
13.3705015,0.025027487
13.254824,0.02516367
13.142069,0.025434861
13.032082,0.025705282
12.924716,0.026143711
12.819836,0.026470965
12.717309,0.026427243
12.617017,0.02753002
12.518845,0.027600791
12.422684,0.028048422
12.328438,0.028262842
12.23601,0.02868419
12.145311,0.02853941
12.056257,0.028147489
11.968773,0.02774609
11.882783,0.027885724
11.798219,0.02827037
11.7150135,0.028843332
11.633108,0.02948367
11.552444,0.03044435
11.472969,0.030053541
11.394629,0.029845646
11.317378,0.029856741
11.241171,0.029380392
11.165965,0.028992573
11.091721,0.029219395
11.018401,0.029875482
10.945969,0.030305529
10.874393,0.030304525
10.803641,0.030301208
10.733684,0.031074142
10.664492,0.030492153
10.596042,0.029934768
10.528306,0.030472457
10.461264,0.030702477
10.394891,0.030758703
10.329167,0.031200642
10.264075,0.031540103
10.199594,0.031454522
10.135705,0.03147356
10.072394,0.030336713
10.0096445,0.030018717
9.947442,0.031009983
9.885775,0.03112992
9.824624,0.031286698
9.763982,0.031741492
9.703834,0.03178847
9.64417,0.03183443
9.584979,0.031993117
9.526253,0.032419186
9.467979,0.032158222
9.410151,0.03251029
9.3527565,0.032360163
9.295791,0.032753892
9.239244,0.032993685
9.183109,0.033907544
9.12738,0.03399515
9.07205,0.03444279
9.01711,0.034410883
8.962557,0.033769015
8.908382,0.033036303
8.854581,0.03327807
8.801149,0.033025987
8.74808,0.032935612
8.69537,0.03342776
8.643014,0.034471005
8.591007,0.034806557
8.539344,0.03540007
8.48802,0.036384616
8.437034,0.036819816
8.38638,0.037215505
8.336055,0.03730942
8.286055,0.037359163
8.236377,0.037363924
8.187016,0.035680898
8.13797,0.036297753
8.089236,0.036875755
8.04081,0.03764008
7.9926906,0.0379576
7.9448724,0.038689107
7.8973556,0.038829878
7.850135,0.038924597
7.80321,0.039158672
7.7565756,0.040565155
7.710231,0.041468713
7.664174,0.042144574
7.6184006,0.042683937
7.57291,0.043851927
7.5276995,0.044549692
7.482766,0.045448434
7.4381084,0.04596554
7.3937244,0.046388887
7.349611,0.0467662
7.3057675,0.047345243
7.2621903,0.047429223
7.218879,0.048015766
7.175831,0.04860761
7.133044,0.04951042
7.090517,0.050524764
7.0482473,0.051033966
7.0062337,0.05128814
6.9644732,0.05190869
6.9229665,0.052797217
6.881709,0.05306095
6.840701,0.053963285
6.79994,0.05343185
6.7594247,0.05337585
6.719154,0.05331723
6.679125,0.054071955
6.6393356,0.055490494
6.599786,0.055547766
6.560474,0.057099037
6.5213976,0.056326885
6.482556,0.058401864
6.443947,0.059146456
6.4055705,0.05978442
6.367422,0.06202563
6.3295035,0.062626824
6.291812,0.06282876
6.254346,0.06372797
6.217103,0.06504476
6.1800838,0.06566956
6.1432858,0.06736407
6.106708,0.06729157
6.0703483,0.06655742
6.034206,0.06689585
5.9982805,0.068447396
5.9625683,0.0697714
5.92707,0.07153788
5.891784,0.073076345
5.856708,0.074320495
5.8218417,0.0748904
5.787183,0.07521335
5.752732,0.07597956
5.718485,0.07700643
5.684444,0.07708407
5.650605,0.07793148
5.616968,0.079433136
5.583532,0.080754764
5.550295,0.08176203
5.5172563,0.08271263
5.4844136,0.08307545
5.4517684,0.08297309
5.419316,0.08387222
5.387058,0.08410467
5.3549924,0.08338698
5.3231173,0.083545044
5.2914324,0.084731944
5.2599363,0.08613731
5.228627,0.086861566
5.1975055,0.08619329
5.166569,0.088045545
5.135817,0.08807754
5.105248,0.08896075
5.0748606,0.09149809
5.044654,0.093342386
5.0146275,0.0954953
4.9847803,0.0973062
4.955111,0.09825546
4.9256177,0.09899132
4.8963003,0.100177705
4.867158,0.10130006
4.8381886,0.102807775
4.809392,0.10455654
4.7807665,0.105866574
4.7523127,0.107647255
4.724026,0.1082149
4.695909,0.109713934
4.667959,0.109670326
4.640177,0.11056187
4.612559,0.112247884
4.585105,0.113236964
4.557816,0.114233814
4.530688,0.11547916
4.5037217,0.11705802
4.4769163,0.118326984
4.450271,0.119606934
4.423784,0.11966604
4.3974533,0.11972157
4.3712807,0.12118647
4.345264,0.12191205
4.3194017,0.12281023
4.293693,0.123714805
4.2681384,0.12513655
4.2427354,0.12605706
4.217483,0.12663954
4.192381,0.12904444
4.16743,0.13138635
4.142626,0.13190992
4.11797,0.13234678
4.09346,0.13349424
4.069097,0.13438281
4.0448785,0.13599585
4.0208044,0.13662939
3.9968739,0.13781103
3.9730854,0.13881907
3.949438,0.14011022
3.925932,0.14094914
3.9025662,0.14216545
3.8793387,0.14254835
3.85625,0.14368452
3.8332987,0.14454482
3.8104842,0.14569631
3.7878044,0.14656867
3.7652605,0.14763921
3.742851,0.148329
3.7205741,0.15029132
3.6984303,0.15305774
3.6764178,0.15525892
3.6545374,0.15738152
3.632786,0.15762375
3.6111646,0.15625341
3.5896719,0.15607555
3.5683074,0.1577228
3.5470698,0.15815495
3.525958,0.15961716
3.5049734,0.16078013
3.484112,0.16268134
3.4633756,0.16239652
3.4427624,0.16400205
3.4222722,0.1648778
3.4019039,0.16543779
3.3816562,0.16718045
3.3615294,0.16958652
3.3415227,0.16918838
3.321635,0.17096701
3.3018653,0.17353123
3.2822137,0.1754558
3.2626784,0.17628363
3.24326,0.17767516
3.2239568,0.17817546
3.2047691,0.17969574
3.1856952,0.18168405
3.1667347,0.18254241
3.1478868,0.18190406
3.1291518,0.1824126
3.1105278,0.1823367
3.0920146,0.18425097
3.0736122,0.18582694
3.0553188,0.18765306
3.037134,0.19033188
3.0190578,0.1936377
3.0010896,0.19431278
2.9832275,0.19523266
2.9654722,0.19689165
2.9478228,0.19733098
2.930278,0.19876048
2.9128375,0.2002
2.895501,0.20240252
2.878268,0.20159464
2.8611374,0.20521447
2.8441086,0.20337716
2.8271809,0.20408085
2.8103547,0.20556125
2.7936282,0.20939317
2.7770011,0.21156275
2.7604735,0.21546185
2.7440438,0.21741393
2.7277122,0.22111328
2.711477,0.2233752
2.6953394,0.2240386
2.6792972,0.2267361
2.663351,0.22754796
2.6474993,0.22781248
2.631742,0.22917649
2.6160786,0.2309653
2.6005085,0.23137017
2.5850313,0.23542592
2.5696461,0.23528016
2.5543516,0.23754239
2.5391486,0.23925085
2.524037,0.24097116
2.5090146,0.2435724
2.4940815,0.24473944
2.4792366,0.24605827
2.4644816,0.2482686
2.4498136,0.25108987
2.4352329,0.2515489
2.420739,0.25305498
2.4063315,0.25562704
2.3920097,0.25822085
2.377773,0.26053092
2.363621,0.2619371
2.3495533,0.26412398
2.3355696,0.2660165
2.3216686,0.26839176
2.3078513,0.2682669
2.294115,0.26955637
2.280461,0.271967
2.2668889,0.27135134
2.253397,0.273621
2.2399855,0.27898994
2.2266536,0.28294483
2.213401,0.283654
2.2002275,0.28848988
2.1871324,0.28922045
2.174115,0.2896152
2.1611753,0.28983617
2.1483126,0.29393926
2.1355262,0.29552907
2.1228166,0.2962715
2.1101818,0.30080038
2.0976226,0.303987
2.0851378,0.3038904
2.0727284,0.30500865
2.060392,0.3073639
2.0481286,0.30902684
2.0359385,0.3112341
2.0238216,0.31291798
2.0117764,0.3162363
1.9998028,0.31758466
1.9879006,0.318024
1.9760691,0.31937653
1.9643079,0.32239854
1.9526169,0.32581747
1.9409955,0.32758108
1.9294431,0.33067232
1.9179596,0.33378884
1.9065444,0.3333099
1.8951972,0.33722264
1.8839173,0.3382775
1.8727047,0.34282508
1.8615594,0.34331614
1.8504798,0.3457644
1.8394659,0.3480322
1.8285179,0.35071212
1.8176354,0.3510129
1.8068173,0.35331562
1.7960637,0.35421726
1.7853739,0.35572752
1.7747478,0.35908574
1.7641851,0.36247146
1.753685,0.36256987
1.7432475,0.3697429
1.7328722,0.37363407
1.7225585,0.37544936
1.7123064,0.3772729
1.7021154,0.37825093
1.6919845,0.37707987
1.6819143,0.37955362
1.6719041,0.3857379
1.6619537,0.38717288
1.6520622,0.39322975
1.6422291,0.39757547
1.6324553,0.3975076
1.6227394,0.3958574
1.6130813,0.40002942
1.6034806,0.40083846
1.5939372,0.40506202
1.5844505,0.4084045
1.5750202,0.41292596
1.5656462,0.41563034
1.5563277,0.41788545
1.5470649,0.41756922
1.5378572,0.41794306
1.5287046,0.41949463
1.5196058,0.42320195
1.5105615,0.42621684
1.5015709,0.427317
1.4926344,0.42865825
1.4837507,0.43122476
1.4749194,0.42986536
1.466141,0.43343037
1.4574152,0.44001427
1.4487412,0.44741374
1.4401187,0.45463386
1.4315474,0.458625
1.4230273,0.46060497
1.4145577,0.45873946
1.4061385,0.45864373
1.3977697,0.46216965
1.3894506,0.4631063
1.3811809,0.4687729
1.3729603,0.4771369
1.3647891,0.4845193
