energy,intensity
97.76732,0.0024155993
92.828835,0.002520625
88.18945,0.002702667
83.8307,0.0028301885
79.735245,0.0030074534
75.88682,0.003207848
72.27017,0.0034739554
68.87099,0.003624313
65.67586,0.0038282971
62.672165,0.004081344
59.848106,0.0043103565
57.19261,0.0045486065
54.69525,0.0048360084
52.346306,0.0051640705
50.136597,0.0054641394
48.057564,0.005874413
46.10113,0.0061946427
44.25976,0.006649381
42.52636,0.007185269
40.894283,0.0075253383
39.357292,0.007920769
37.909534,0.008414946
36.545517,0.0089775715
35.260098,0.009191505
34.04844,0.009614637
32.906017,0.010069891
31.828575,0.01036511
30.812122,0.010872129
29.85292,0.011404023
28.947456,0.011836043
28.092442,0.012196282
27.284779,0.0126505215
26.521572,0.012959765
25.800108,0.013589737
25.117828,0.01424818
24.472345,0.0147279175
23.861408,0.015074551
23.282911,0.01569878
22.734882,0.015885428
22.215462,0.016175073
21.722916,0.016775988
21.255604,0.017367028
20.812004,0.018121272
20.390675,0.018709537
19.990267,0.019484151
19.609518,0.02027009
19.247244,0.020330705
18.902327,0.02052869
18.573725,0.020891879
18.260456,0.021150807
17.961601,0.021522952
17.676302,0.021993667
17.403744,0.022379857
17.143167,0.023228692
16.893862,0.02365751
16.655159,0.023669347
16.426428,0.023932572
16.207083,0.024749674
15.996571,0.025347933
15.794373,0.025741449
15.6,0.026504701
15.412999,0.02687342
15.232939,0.027167227
15.05942,0.027118355
14.892062,0.027740285
14.730514,0.028488487
14.574441,0.02896807
14.423531,0.028767351
14.277491,0.029163394
14.136047,0.029866438
13.998942,0.029432226
13.865933,0.03039584
13.73679,0.030549353
13.611302,0.030830998
13.48927,0.030948306
13.3705015,0.03144061
13.254824,0.03144088
13.142069,0.031572398
13.032082,0.03211766
12.924716,0.032412577
12.819836,0.032791115
12.717309,0.033169754
12.617017,0.03380778
12.518845,0.034130946
12.422684,0.034336653
12.328438,0.0343339
12.23601,0.034652643
12.145311,0.034432765
12.056257,0.034114517
11.968773,0.033817448
11.882783,0.034306783
11.798219,0.034491085
11.7150135,0.03476707
11.633108,0.03532418
11.552444,0.03642
11.472969,0.035753895
11.394629,0.036095373
11.317378,0.036117025
11.241171,0.035553835
11.165965,0.035175048
11.091721,0.035213955
11.018401,0.035151504
10.945969,0.035782434
10.874393,0.036218423
10.803641,0.035883892
10.733684,0.03642242
10.664492,0.036147688
10.596042,0.035318222
10.528306,0.035372898
10.461264,0.03584271
10.394891,0.035372507
10.329167,0.03559758
10.264075,0.03582333
10.199594,0.03565796
10.135705,0.035416715
10.072394,0.034881808
10.0096445,0.034592304
9.947442,0.03455294
9.885775,0.033996664
9.824624,0.034023356
9.763982,0.034197457
9.703834,0.034334544
9.64417,0.03413254
9.584979,0.03449495
9.526253,0.034059215
9.467979,0.03426884
9.410151,0.034209162
9.3527565,0.03379753
9.295791,0.033848293
9.239244,0.034173436
9.183109,0.034738418
9.12738,0.034950517
9.07205,0.03532388
9.01711,0.034652643
8.962557,0.034133863
8.908382,0.033525728
8.854581,0.033113934
8.801149,0.032943428
8.74808,0.033184808
8.69537,0.033678465
8.643014,0.03375636
8.591007,0.034256753
8.539344,0.034761846
8.48802,0.03505765
8.437034,0.035484828
8.38638,0.035092615
8.336055,0.03495579
8.286055,0.034903627
8.236377,0.035158258
8.187016,0.03381696
8.13797,0.034333296
8.089236,0.03516896
8.04081,0.035109647
7.9926906,0.03568469
7.9448724,0.03571654
7.8973556,0.03542536
7.850135,0.03591616
7.80321,0.036085583
7.7565756,0.036443062
7.710231,0.0370391
7.664174,0.037783157
7.6184006,0.03843939
7.57291,0.038910188
7.5276995,0.039336942
7.482766,0.03933038
7.4381084,0.03966421
7.3937244,0.03946004
7.349611,0.04019124
7.3057675,0.04008431
7.2621903,0.039824534
7.218879,0.040617112
7.175831,0.04075951
7.133044,0.040953066
7.090517,0.04191608
7.0482473,0.04170351
7.0062337,0.041694302
6.9644732,0.04199648
6.9229665,0.042615645
6.881709,0.042765543
6.840701,0.04323436
6.79994,0.042852342
6.7594247,0.04257167
6.719154,0.04255645
6.679125,0.042049922
6.6393356,0.04361531
6.599786,0.043546364
6.560474,0.04430575
6.5213976,0.043624096
6.482556,0.045342717
6.443947,0.046065457
6.4055705,0.046625048
6.367422,0.04741794
6.3295035,0.048218638
6.291812,0.047814526
6.254346,0.04757812
6.217103,0.04821378
6.1800838,0.04932566
6.1432858,0.050330836
6.106708,0.05021582
6.0703483,0.049977917
6.034206,0.05033747
5.9982805,0.05172927
5.9625683,0.05228284
5.92707,0.05314768
5.891784,0.054576002
5.856708,0.05539915
5.8218417,0.055543702
5.787183,0.0557508
5.752732,0.056210976
5.718485,0.057182975
5.684444,0.057845004
5.650605,0.05825571
5.616968,0.05938079
5.583532,0.06051725
5.550295,0.06133789
5.5172563,0.061573483
5.4844136,0.061544724
5.4517684,0.061113507
5.419316,0.061345387
5.387058,0.061982505
5.3549924,0.062082253
5.3231173,0.062590525
5.2914324,0.06323998
5.2599363,0.06368773
5.228627,0.06365214
5.1975055,0.06368376
5.166569,0.06490897
5.135817,0.06494391
5.105248,0.06590213
5.0748606,0.06787182
5.044654,0.06971869
5.0146275,0.0708607
4.9847803,0.07274276
4.955111,0.073251635
4.9256177,0.07376401
4.8963003,0.07457672
4.867158,0.07636695
4.8381886,0.077124596
4.809392,0.07834185
4.7807665,0.079722926
4.7523127,0.081194155
4.724026,0.08191107
4.695909,0.08294312
4.667959,0.08297273
4.640177,0.08386104
4.612559,0.08452068
4.585105,0.08534374
4.557816,0.08665189
4.530688,0.08789247
4.5037217,0.0894675
4.4769163,0.09000318
4.450271,0.09103191
4.423784,0.091084175
4.3974533,0.09113382
4.3712807,0.09276001
4.345264,0.09356624
4.3194017,0.094631165
4.293693,0.095790125
4.2681384,0.09730003
4.2427354,0.09813954
4.217483,0.09941634
4.192381,0.10018493
4.16743,0.10148223
4.142626,0.10173903
4.11797,0.10261285
4.09346,0.10358231
4.069097,0.104291774
4.0448785,0.10599413
4.0208044,0.10717094
3.9968739,0.10899435
3.9730854,0.10982984
3.949438,0.11085544
3.925932,0.11124154
3.9025662,0.11265238
3.8793387,0.11379518
3.85625,0.11485338
3.8332987,0.11411929
3.8104842,0.11413511
3.7878044,0.114722565
3.7652605,0.11608495
3.742851,0.11765363
3.7205741,0.11982292
3.6984303,0.12270162
3.6764178,0.12580815
3.6545374,0.12735675
3.632786,0.12891942
3.6111646,0.12938948
3.5896719,0.12915203
3.5683074,0.13053623
3.5470698,0.1299862
3.525958,0.13107362
3.5049734,0.13279133
3.484112,0.1336907
3.4633756,0.133547
3.4427624,0.13561301
3.4222722,0.1360003
3.4019039,0.13745539
3.3816562,0.13827844
3.3615294,0.1409438
3.3415227,0.14015667
3.321635,0.14154275
3.3018653,0.14327052
3.2822137,0.1463423
3.2626784,0.14788668
3.24326,0.1494443
3.2239568,0.15022638
3.2047691,0.15089905
3.1856952,0.15203068
3.1667347,0.15362935
3.1478868,0.15408751
3.1291518,0.15547451
3.1105278,0.15593818
3.0920146,0.15710686
3.0736122,0.1593478
3.0553188,0.16089645
3.037134,0.16293651
3.0190578,0.1645138
3.0010896,0.16574094
2.9832275,0.16575898
2.9654722,0.16883428
2.9478228,0.17095444
2.930278,0.172102
2.9128375,0.17375612
2.895501,0.17454551
2.878268,0.17660044
2.8611374,0.17867371
2.8441086,0.17706077
2.8271809,0.17876352
2.8103547,0.17970452
2.7936282,0.1815608
2.7770011,0.1840871
2.7604735,0.18729517
2.7440438,0.1886814
2.7277122,0.19154271
2.711477,0.19362758
2.6953394,0.19357367
2.6792972,0.19608876
2.663351,0.19617143
2.6474993,0.19830665
2.631742,0.20004623
2.6160786,0.20013289
2.6005085,0.20063257
2.5850313,0.20323935
2.5696461,0.20431478
2.5543516,0.20582266
2.5391486,0.2066257
2.524037,0.20829466
2.5090146,0.21070024
2.4940815,0.21196182
2.4792366,0.21411026
2.4644816,0.2161293
2.4498136,0.21935141
2.4352329,0.21947114
2.420739,0.21913421
2.4063315,0.22120118
2.3920097,0.22450025
2.377773,0.22645561
2.363621,0.22950241
2.3495533,0.23242292
2.3355696,0.23179214
2.3216686,0.23318
2.3078513,0.23300174
2.294115,0.23376337
2.280461,0.23564097
2.2668889,0.23705177
2.253397,0.23879357
2.2399855,0.24184534
2.2266536,0.2442724
2.213401,0.24622743
2.2002275,0.2498484
2.1871324,0.25134435
2.174115,0.25084385
2.1611753,0.2503283
2.1483126,0.254364
2.1355262,0.25520644
2.1228166,0.25793248
2.1101818,0.25844377
2.0976226,0.2618965
2.0851378,0.26329035
2.0727284,0.2641655
2.060392,0.26486546
2.0481286,0.2676932
2.0359385,0.271259
2.0238216,0.2741398
2.0117764,0.27560052
1.9998028,0.27815908
1.9879006,0.27799684
1.9760691,0.2792936
1.9643079,0.28152072
1.9526169,0.28413668
1.9409955,0.28808415
1.9294431,0.28980902
1.9179596,0.29211253
1.9065444,0.2925275
1.8951972,0.29849666
1.8839173,0.29758388
1.8727047,0.30149978
1.8615594,0.30115792
1.8504798,0.30315745
1.8394659,0.30517015
1.8285179,0.30838817
1.8176354,0.30823565
1.8068173,0.31209213
1.7960637,0.31112856
1.7853739,0.30932835
1.7747478,0.31158984
1.7641851,0.31901613
1.753685,0.31947586
1.7432475,0.32659927
1.7328722,0.32981274
1.7225585,0.33368585
1.7123064,0.3322887
1.7021154,0.33748004
1.6919845,0.33606493
1.6819143,0.33829308
1.6719041,0.34183982
1.6619537,0.34541675
1.6520622,0.34792477
1.6422291,0.35553908
1.6324553,0.3529938
1.6227394,0.35197276
1.6130813,0.35453057
1.6034806,0.3559736
1.5939372,0.3585608
1.5844505,0.3604783
1.5750202,0.3644821
1.5656462,0.3664323
1.5563277,0.36885974
1.5470649,0.36825
1.5378572,0.36974606
1.5287046,0.36791936
1.5196058,0.37227416
1.5105615,0.37306
1.5015709,0.38061693
1.4926344,0.38167864
1.4837507,0.38494343
1.4749194,0.38724834
1.466141,0.385354
1.4574152,0.38990498
1.4487412,0.3985092
1.4401187,0.4046797
1.4315474,0.40811786
1.4230273,0.4087742
1.4145577,0.40788254
1.4061385,0.40722403
1.3977697,0.41460103
1.3894506,0.41786784
1.3811809,0.4208959
1.3729603,0.4252684
1.3647891,0.42701593
