energy,intensity
97.76732,0.0017020687
92.828835,0.0018435006
88.18945,0.0019899209
83.8307,0.002132393
79.735245,0.002328498
75.88682,0.002369977
72.27017,0.0023779755
68.87099,0.0024584134
65.67586,0.0025669509
62.672165,0.0025740298
59.848106,0.0026287106
57.19261,0.0027888804
54.69525,0.0030158623
52.346306,0.003067902
50.136597,0.0031378947
48.057564,0.0032282814
46.10113,0.0033968077
44.25976,0.0035545458
42.52636,0.0037079747
40.894283,0.0039981143
39.357292,0.0042557977
37.909534,0.0043991576
36.545517,0.004662771
35.260098,0.0048739715
34.04844,0.0049940622
32.906017,0.0050570294
31.828575,0.0051026484
30.812122,0.0052120187
29.85292,0.0054281685
28.947456,0.005585408
28.092442,0.0059623397
27.284779,0.005952404
26.521572,0.006205892
25.800108,0.0063935136
25.117828,0.006740764
24.472345,0.0068443245
23.861408,0.0069434308
23.282911,0.0071471604
22.734882,0.0075751445
22.215462,0.007834034
21.722916,0.008212374
21.255604,0.008580954
20.812004,0.008746396
20.390675,0.009034032
19.990267,0.008996879
19.609518,0.00937538
19.247244,0.009193179
18.902327,0.009303266
18.573725,0.009350486
18.260456,0.009550693
17.961601,0.0096084615
17.676302,0.009866319
17.403744,0.010500998
17.143167,0.01085136
16.893862,0.010731908
16.655159,0.010667566
16.426428,0.010860346
16.207083,0.01062622
15.996571,0.010879624
15.794373,0.011156928
15.6,0.011552138
15.412999,0.0119987475
15.232939,0.012546058
15.05942,0.012594113
14.892062,0.012760045
14.730514,0.012801319
14.574441,0.01261432
14.423531,0.012947826
14.277491,0.013334744
14.136047,0.013519576
13.998942,0.0135741215
13.865933,0.013730535
13.73679,0.013515775
13.611302,0.013960701
13.48927,0.013763781
13.3705015,0.013668651
13.254824,0.014199108
13.142069,0.014514459
13.032082,0.014525439
12.924716,0.014589878
12.819836,0.014595872
12.717309,0.014542123
12.617017,0.014974485
12.518845,0.01483071
12.422684,0.0149162635
12.328438,0.015207119
12.23601,0.015232909
12.145311,0.01576548
12.056257,0.016032618
11.968773,0.016908724
11.882783,0.017214544
11.798219,0.017676681
11.7150135,0.017057884
11.633108,0.016553331
11.552444,0.016763264
11.472969,0.016499365
11.394629,0.016325822
11.317378,0.01627674
11.241171,0.016807266
11.165965,0.017213322
11.091721,0.017623356
11.018401,0.018004429
10.945969,0.018189956
10.874393,0.018109212
10.803641,0.018328698
10.733684,0.01824506
10.664492,0.018124944
10.596042,0.018276323
10.528306,0.017945277
10.461264,0.01806028
10.394891,0.018699894
10.329167,0.018854056
10.264075,0.019150615
10.199594,0.019271685
10.135705,0.019106384
10.072394,0.019334698
10.0096445,0.019528503
9.947442,0.01976019
9.885775,0.020214234
9.824624,0.020414013
9.763982,0.021098975
9.703834,0.02179139
9.64417,0.022566658
9.584979,0.022857642
9.526253,0.023189254
9.467979,0.02306335
9.410151,0.024015915
9.3527565,0.024357527
9.295791,0.02380325
9.239244,0.02410623
9.183109,0.024451414
9.12738,0.024720127
9.07205,0.02491095
9.01711,0.025022432
8.962557,0.025417972
8.908382,0.025531758
8.854581,0.025686895
8.801149,0.025099754
8.74808,0.025501216
8.69537,0.025279742
8.643014,0.024886383
8.591007,0.024783283
8.539344,0.025443802
8.48802,0.026282534
8.437034,0.025967661
8.38638,0.026167829
8.336055,0.025933528
8.286055,0.026616206
8.236377,0.027438441
8.187016,0.028092047
8.13797,0.028350646
8.089236,0.029015515
8.04081,0.030048806
7.9926906,0.029502373
7.9448724,0.029954335
7.8973556,0.030916682
7.850135,0.031102652
7.80321,0.03063782
7.7565756,0.03002571
7.710231,0.030300438
7.664174,0.031146217
7.6184006,0.0321918
7.57291,0.033152826
7.5276995,0.033882864
7.482766,0.03476611
7.4381084,0.034486372
7.3937244,0.03405456
7.349611,0.03435783
7.3057675,0.03481268
7.2621903,0.034971546
7.218879,0.035382684
7.175831,0.03686077
7.133044,0.037947804
7.090517,0.038482852
7.0482473,0.038249698
7.0062337,0.038530935
6.9644732,0.03730122
6.9229665,0.03762982
6.881709,0.037855428
6.840701,0.03834793
6.79994,0.039379273
6.7594247,0.040582847
6.719154,0.041258667
6.679125,0.04101635
6.6393356,0.041043263
6.599786,0.041674584
6.560474,0.041758165
6.5213976,0.03927839
6.482556,0.039177455
6.443947,0.038622815
6.4055705,0.04049913
6.367422,0.042054176
6.3295035,0.04178948
6.291812,0.043137018
6.254346,0.044499192
6.217103,0.045408614
6.1800838,0.046738856
6.1432858,0.048260815
6.106708,0.049204364
6.0703483,0.05159397
6.034206,0.05106003
5.9982805,0.050881248
5.9625683,0.050271958
5.92707,0.051002163
5.891784,0.051184274
5.856708,0.05155285
5.8218417,0.05242328
5.787183,0.053365063
5.752732,0.054568864
5.718485,0.05559457
5.684444,0.056886256
5.650605,0.056391012
5.616968,0.05672871
5.583532,0.05771914
5.550295,0.056886476
5.5172563,0.057753958
5.4844136,0.05856355
5.4517684,0.059847254
5.419316,0.059535194
5.387058,0.061038274
5.3549924,0.062353652
5.3231173,0.06286354
5.2914324,0.06269066
5.2599363,0.06278973
5.228627,0.06288776
5.1975055,0.063404135
5.166569,0.06526058
5.135817,0.064519435
5.105248,0.0661868
5.0748606,0.0668695
5.044654,0.06734192
5.0146275,0.06694815
4.9847803,0.068661004
4.955111,0.06951206
4.9256177,0.069854535
4.8963003,0.07012438
4.867158,0.07046961
4.8381886,0.07044096
4.809392,0.0707872
4.7807665,0.07075505
4.7523127,0.07232549
4.724026,0.075219736
4.695909,0.07652122
4.667959,0.0789253
4.640177,0.081120476
4.612559,0.08073971
4.585105,0.07971756
4.557816,0.07979627
4.530688,0.077868246
4.5037217,0.07841515
4.4769163,0.08156285
4.450271,0.081724614
4.423784,0.082706735
4.3974533,0.084771805
4.3712807,0.084780656
4.345264,0.08470295
4.3194017,0.08605128
4.293693,0.087920435
4.2681384,0.0867443
4.2427354,0.08854823
4.217483,0.09054296
4.192381,0.092645064
4.16743,0.092327885
4.142626,0.09437171
4.11797,0.09528967
4.09346,0.09497263
4.069097,0.09634489
4.0448785,0.095574364
4.0208044,0.0961466
3.9968739,0.09617685
3.9730854,0.09556386
3.949438,0.09696402
3.925932,0.10041354
3.9025662,0.10036303
3.8793387,0.10536591
3.85625,0.106091
3.8332987,0.10539923
3.8104842,0.10469538
3.7878044,0.106569216
3.7652605,0.105180874
3.742851,0.10755795
3.7205741,0.10888553
3.6984303,0.11022514
3.6764178,0.109798
3.6545374,0.11075363
3.632786,0.1095165
3.6111646,0.1106753
3.5896719,0.11174283
3.5683074,0.11495741
3.5470698,0.117079735
3.525958,0.12138735
3.5049734,0.122736074
3.484112,0.1250352
3.4633756,0.12557407
3.4427624,0.125165
3.4222722,0.12580824
3.4019039,0.1260275
3.3816562,0.12635231
3.3615294,0.12678458
3.3415227,0.12950087
3.321635,0.12885424
3.3018653,0.12995584
3.2822137,0.13150883
3.2626784,0.13396665
3.24326,0.13286427
3.2239568,0.13343439
3.2047691,0.13570711
3.1856952,0.13651966
3.1667347,0.13607496
3.1478868,0.1388519
3.1291518,0.14246991
3.1105278,0.14425744
3.0920146,0.14641373
3.0736122,0.14929992
3.0553188,0.15114518
3.037134,0.15133238
3.0190578,0.15115534
3.0010896,0.15387635
2.9832275,0.1532144
2.9654722,0.15486689
2.9478228,0.15591735
2.930278,0.15573494
2.9128375,0.1572911
2.895501,0.1577309
2.878268,0.15766543
2.8611374,0.163689
2.8441086,0.16786277
2.8271809,0.16796829
2.8103547,0.17207673
2.7936282,0.16985561
2.7770011,0.16786335
2.7604735,0.16807868
2.7440438,0.16908501
2.7277122,0.170497
2.711477,0.1727238
2.6953394,0.17375796
2.6792972,0.1761544
2.663351,0.17734553
2.6474993,0.17758398
2.631742,0.17740467
2.6160786,0.18180011
2.6005085,0.18149146
2.5850313,0.1837025
2.5696461,0.18536797
2.5543516,0.18718907
2.5391486,0.1855911
2.524037,0.1865583
2.5090146,0.19042675
2.4940815,0.19550017
2.4792366,0.19681732
2.4644816,0.19740596
2.4498136,0.19888452
2.4352329,0.19813576
2.420739,0.20262413
2.4063315,0.20172341
2.3920097,0.20536149
2.377773,0.20399341
2.363621,0.20705946
2.3495533,0.20381463
2.3355696,0.203946
2.3216686,0.20375864
2.3078513,0.20434883
2.294115,0.20493892
2.280461,0.20616595
2.2668889,0.21028528
2.253397,0.21444662
2.2399855,0.21621719
2.2266536,0.22028574
2.213401,0.22538015
2.2002275,0.2285461
2.1871324,0.22526303
2.174115,0.22761448
2.1611753,0.22275686
2.1483126,0.22324498
2.1355262,0.22815454
2.1228166,0.22917822
2.1101818,0.23554373
2.0976226,0.24370924
2.0851378,0.23889549
2.0727284,0.23646936
2.060392,0.23876691
2.0481286,0.2370034
2.0359385,0.23967163
2.0238216,0.24056797
2.0117764,0.24417558
1.9998028,0.24654599
1.9879006,0.24509779
1.9760691,0.24435887
1.9643079,0.24545202
1.9526169,0.24543302
1.9409955,0.24634095
1.9294431,0.25026393
1.9179596,0.2546039
1.9065444,0.25631887
1.8951972,0.2565116
1.8839173,0.25496167
1.8727047,0.25571212
1.8615594,0.25841418
1.8504798,0.2658518
1.8394659,0.26922125
1.8285179,0.273019
1.8176354,0.27885133
1.8068173,0.27589583
1.7960637,0.27309722
1.7853739,0.2767674
1.7747478,0.278834
1.7641851,0.28050348
1.753685,0.28839844
1.7432475,0.2915842
1.7328722,0.29060423
1.7225585,0.28939122
1.7123064,0.293458
1.7021154,0.28945157
1.6919845,0.2883931
1.6819143,0.29206404
1.6719041,0.29946297
1.6619537,0.30125594
1.6520622,0.30305964
1.6422291,0.31195408
1.6324553,0.3140443
1.6227394,0.31771585
1.6130813,0.31578904
1.6034806,0.32538387
1.5939372,0.32163337
1.5844505,0.3219539
1.5750202,0.32088268
1.5656462,0.32721317
1.5563277,0.32240212
1.5470649,0.32715067
1.5378572,0.32863694
1.5287046,0.32775247
1.5196058,0.32780218
1.5105615,0.33000535
1.5015709,0.33198124
1.4926344,0.33737668
1.4837507,0.338662
1.4749194,0.34118244
1.466141,0.3387646
1.4574152,0.33954635
1.4487412,0.34835076
1.4401187,0.35295936
1.4315474,0.35659555
1.4230273,0.3623051
1.4145577,0.36498812
1.4061385,0.35322037
1.3977697,0.35533515
1.3894506,0.36138508
1.3811809,0.36223352
1.3729603,0.35990363
1.3647891,0.36099353
