energy,intensity
97.76732,0.0016314589
92.828835,0.0017104244
88.18945,0.0018622031
83.8307,0.0019980348
79.735245,0.002114331
75.88682,0.0021593124
72.27017,0.0022120702
68.87099,0.002315973
65.67586,0.0024120484
62.672165,0.0024870692
59.848106,0.002592285
57.19261,0.0027126465
54.69525,0.0028962907
52.346306,0.0030054334
50.136597,0.0031016602
48.057564,0.0031451173
46.10113,0.0032785896
44.25976,0.0033903632
42.52636,0.0035627312
40.894283,0.0038026508
39.357292,0.003997312
37.909534,0.004264978
36.545517,0.004414222
35.260098,0.0046163616
34.04844,0.004652587
32.906017,0.004692658
31.828575,0.004771604
30.812122,0.004940805
29.85292,0.005075216
28.947456,0.0051084515
28.092442,0.005354465
27.284779,0.0054730154
26.521572,0.0059593003
25.800108,0.006013283
25.117828,0.0063646706
24.472345,0.006488004
23.861408,0.006715027
23.282911,0.0067570307
22.734882,0.0069358917
22.215462,0.007212545
21.722916,0.007476437
21.255604,0.00769209
20.812004,0.007838586
20.390675,0.007982735
19.990267,0.007833647
19.609518,0.00820809
19.247244,0.008211566
18.902327,0.008226855
18.573725,0.008411525
18.260456,0.008695112
17.961601,0.008698186
17.676302,0.009085236
17.403744,0.009394531
17.143167,0.009622104
16.893862,0.009613552
16.655159,0.009685888
16.426428,0.009931354
16.207083,0.009864001
15.996571,0.0100846635
15.794373,0.009960722
15.6,0.010061541
15.412999,0.010348625
15.232939,0.010614062
15.05942,0.010567473
14.892062,0.011003401
14.730514,0.010976084
14.574441,0.01126813
14.423531,0.011411216
14.277491,0.011680625
14.136047,0.01159188
13.998942,0.011783272
13.865933,0.011739083
13.73679,0.011743648
13.611302,0.01158498
13.48927,0.011501241
13.3705015,0.011521881
13.254824,0.011567614
13.142069,0.011639214
13.032082,0.011848966
12.924716,0.012172287
12.819836,0.012526942
12.717309,0.012485085
12.617017,0.012613127
12.518845,0.012712036
12.422684,0.0127519425
12.328438,0.012819955
12.23601,0.012798019
12.145311,0.012953423
12.056257,0.013169649
11.968773,0.013781977
11.882783,0.0139122885
11.798219,0.014227572
11.7150135,0.0141115235
11.633108,0.013992252
11.552444,0.013743991
11.472969,0.0137125235
11.394629,0.013424163
11.317378,0.01348369
11.241171,0.013769031
11.165965,0.014154623
11.091721,0.01434764
11.018401,0.014970715
10.945969,0.014937008
10.874393,0.015202383
10.803641,0.01520105
10.733684,0.015063174
10.664492,0.014786142
10.596042,0.014675921
10.528306,0.01480485
10.461264,0.014795536
10.394891,0.014645336
10.329167,0.01516063
10.264075,0.015292172
10.199594,0.015887562
10.135705,0.015485851
10.072394,0.015979981
10.0096445,0.01568088
9.947442,0.015998084
9.885775,0.016061129
9.824624,0.016530914
9.763982,0.016670795
9.703834,0.017111111
9.64417,0.016990924
9.584979,0.017816072
9.526253,0.018040322
9.467979,0.017844358
9.410151,0.018494569
9.3527565,0.019190777
9.295791,0.018643925
9.239244,0.01883668
9.183109,0.019030958
9.12738,0.019545224
9.07205,0.01954428
9.01711,0.019502187
8.962557,0.020026283
8.908382,0.019536283
8.854581,0.019613955
8.801149,0.018783532
8.74808,0.018855948
8.69537,0.018343478
8.643014,0.018244408
8.591007,0.018524023
8.539344,0.018678645
8.48802,0.019048419
8.437034,0.018517569
8.38638,0.019062657
8.336055,0.01895981
8.286055,0.019556556
8.236377,0.019983303
8.187016,0.020458821
8.13797,0.020805355
8.089236,0.020930696
8.04081,0.021056756
7.9926906,0.020365275
7.9448724,0.020899434
7.8973556,0.021071188
7.850135,0.020642536
7.80321,0.02072011
7.7565756,0.020516787
7.710231,0.02035737
7.664174,0.020953769
7.6184006,0.02179504
7.57291,0.02226181
7.5276995,0.022926439
7.482766,0.023452558
7.4381084,0.02330028
7.3937244,0.022457335
7.349611,0.022641566
7.3057675,0.022479048
7.2621903,0.022213686
7.218879,0.022497954
7.175831,0.023594946
7.133044,0.024093036
7.090517,0.02495493
7.0482473,0.02505304
7.0062337,0.024788402
6.9644732,0.024780532
6.9229665,0.024719175
6.881709,0.024814576
6.840701,0.025919372
6.79994,0.025540423
6.7594247,0.025747264
6.719154,0.026442323
6.679125,0.026763987
6.6393356,0.02621297
6.599786,0.026314998
6.560474,0.025808092
6.5213976,0.025517026
6.482556,0.026006207
6.443947,0.026049253
6.4055705,0.027226305
6.367422,0.027503544
6.3295035,0.027496105
6.291812,0.02742983
6.254346,0.027826522
6.217103,0.028343856
6.1800838,0.028631222
6.1432858,0.02898015
6.106708,0.02933223
6.0703483,0.030764852
6.034206,0.030226568
5.9982805,0.031013336
5.9625683,0.030406918
5.92707,0.030650336
5.891784,0.030217221
5.856708,0.03033616
5.8218417,0.031204332
5.787183,0.031767912
5.752732,0.031452887
5.718485,0.03170479
5.684444,0.03253382
5.650605,0.031828456
5.616968,0.030919412
5.583532,0.031495
5.550295,0.031225368
5.5172563,0.03114894
5.4844136,0.03239545
5.4517684,0.03352246
5.419316,0.033790246
5.387058,0.03527405
5.3549924,0.03602807
5.3231173,0.035834275
5.2914324,0.035156205
5.2599363,0.034745038
5.228627,0.034675136
5.1975055,0.03488276
5.166569,0.036146495
5.135817,0.036150694
5.105248,0.0369365
5.0748606,0.036370136
5.044654,0.03637184
5.0146275,0.035647713
4.9847803,0.03644427
4.955111,0.03717576
4.9256177,0.037324592
4.8963003,0.035915557
4.867158,0.0356827
4.8381886,0.0349201
4.809392,0.034675904
4.7807665,0.03480753
4.7523127,0.036545016
4.724026,0.037686784
4.695909,0.03876353
4.667959,0.03899563
4.640177,0.040560238
4.612559,0.040094167
4.585105,0.039304085
4.557816,0.039937995
4.530688,0.03937519
4.5037217,0.0394496
4.4769163,0.04171473
4.450271,0.04196449
4.423784,0.04147657
4.3974533,0.043460004
4.3712807,0.042972155
4.345264,0.042142443
4.3194017,0.04231065
4.293693,0.043833293
4.2681384,0.042137813
4.2427354,0.042475745
4.217483,0.04376387
4.192381,0.045065887
4.16743,0.04542288
4.142626,0.045519445
4.11797,0.045615528
4.09346,0.04562237
4.069097,0.045627657
4.0448785,0.046439804
4.0208044,0.04599495
3.9968739,0.04572491
3.9730854,0.045084197
3.949438,0.04572212
3.925932,0.04488531
3.9025662,0.04617817
3.8793387,0.047016613
3.85625,0.047674995
3.8332987,0.047296956
3.8104842,0.047580138
3.7878044,0.048440553
3.7652605,0.04815161
3.742851,0.049798947
3.7205741,0.051366635
3.6984303,0.052165378
3.6764178,0.04931522
3.6545374,0.05080352
3.632786,0.04900739
3.6111646,0.049401425
3.5896719,0.050000865
3.5683074,0.05142028
3.5470698,0.052854903
3.525958,0.05512924
3.5049734,0.056081273
3.484112,0.05871128
3.4633756,0.059272625
3.4427624,0.058044482
3.4222722,0.058073513
3.4019039,0.056391954
3.3816562,0.05662216
3.3615294,0.056528844
3.3415227,0.058389556
3.321635,0.056551475
3.3018653,0.05920089
3.2822137,0.059444647
3.2626784,0.060580093
3.24326,0.060270645
3.2239568,0.062209286
3.2047691,0.06326197
3.1856952,0.062044032
3.1667347,0.062415503
3.1478868,0.0632509
3.1291518,0.064906836
3.1105278,0.065295465
3.0920146,0.06756653
3.0736122,0.06891675
3.0553188,0.06932939
3.037134,0.06998374
3.0190578,0.07016207
3.0010896,0.07046108
2.9832275,0.06929967
2.9654722,0.0686119
2.9478228,0.06939246
2.930278,0.069559954
2.9128375,0.07072486
2.895501,0.06951705
2.878268,0.070438206
2.8611374,0.07276477
2.8441086,0.074222445
2.8271809,0.074795365
2.8103547,0.07757028
2.7936282,0.075823754
2.7770011,0.074576855
2.7604735,0.07515499
2.7440438,0.07560498
2.7277122,0.07565804
2.711477,0.076647036
2.6953394,0.07643194
2.6792972,0.07946612
2.663351,0.08076042
2.6474993,0.07945989
2.631742,0.07952148
2.6160786,0.08291418
2.6005085,0.082572326
2.5850313,0.08334781
2.5696461,0.08328125
2.5543516,0.083779916
2.5391486,0.082135156
2.524037,0.08003582
2.5090146,0.083845675
2.4940815,0.08595015
2.4792366,0.08675789
2.4644816,0.085655615
2.4498136,0.08676171
2.4352329,0.08519241
2.420739,0.08885444
2.4063315,0.08757455
2.3920097,0.09144054
2.377773,0.09061282
2.363621,0.09130908
2.3495533,0.09077329
2.3355696,0.09022782
2.3216686,0.08920309
2.3078513,0.0894223
2.294115,0.08853233
2.280461,0.08715051
2.2668889,0.0884737
2.253397,0.09045455
2.2399855,0.090022914
2.2266536,0.09219366
2.213401,0.097013615
2.2002275,0.09974122
2.1871324,0.09801267
2.174115,0.09893375
2.1611753,0.095659375
2.1483126,0.096739486
2.1355262,0.10140202
2.1228166,0.100639895
2.1101818,0.102792084
2.0976226,0.10929676
2.0851378,0.10698893
2.0727284,0.10149427
2.060392,0.10386537
2.0481286,0.10501945
2.0359385,0.10636208
2.0238216,0.10681938
2.0117764,0.11125161
1.9998028,0.11264445
1.9879006,0.109480664
1.9760691,0.10480404
1.9643079,0.10598644
1.9526169,0.10606279
1.9409955,0.10651064
1.9294431,0.108089924
1.9179596,0.111199774
1.9065444,0.1111033
1.8951972,0.111576796
1.8839173,0.10993053
1.8727047,0.10981264
1.8615594,0.110079765
1.8504798,0.11388038
1.8394659,0.11673498
1.8285179,0.12001707
1.8176354,0.12313435
1.8068173,0.121659614
1.7960637,0.12117426
1.7853739,0.122713804
1.7747478,0.12529105
1.7641851,0.12624715
1.753685,0.12824616
1.7432475,0.13047299
1.7328722,0.13041547
1.7225585,0.12908706
1.7123064,0.13367936
1.7021154,0.12957016
1.6919845,0.12562172
1.6819143,0.12788603
1.6719041,0.13147686
1.6619537,0.13270125
1.6520622,0.13085666
1.6422291,0.13938372
1.6324553,0.13932797
1.6227394,0.14061
1.6130813,0.14212757
1.6034806,0.15158899
1.5939372,0.14770973
1.5844505,0.14882343
1.5750202,0.14648491
1.5656462,0.14829023
1.5563277,0.1475439
1.5470649,0.14983644
1.5378572,0.15026104
1.5287046,0.15353742
1.5196058,0.15182668
1.5105615,0.15610312
1.5015709,0.15534398
1.4926344,0.1582214
1.4837507,0.15745457
1.4749194,0.16086079
1.466141,0.16058485
1.4574152,0.1652858
1.4487412,0.1700373
1.4401187,0.16979389
1.4315474,0.17207956
1.4230273,0.17540777
1.4145577,0.17722856
1.4061385,0.16924602
1.3977697,0.17025937
1.3894506,0.17415519
1.3811809,0.17388262
1.3729603,0.17148349
1.3647891,0.17623724
