energy,intensity
97.76732,0.01075747
92.828835,0.011622012
88.18945,0.012343276
83.8307,0.013221994
79.735245,0.014223127
75.88682,0.015206155
72.27017,0.016128
68.87099,0.01730385
65.67586,0.01847024
62.672165,0.01948687
59.848106,0.020803036
57.19261,0.022226337
54.69525,0.023763753
52.346306,0.025265075
50.136597,0.027151601
48.057564,0.028668951
46.10113,0.030106276
44.25976,0.031774737
42.52636,0.033502776
40.894283,0.035621714
39.357292,0.03761596
37.909534,0.03958922
36.545517,0.04175615
35.260098,0.04385543
34.04844,0.04626977
32.906017,0.048715305
31.828575,0.050942764
30.812122,0.053425148
29.85292,0.055953138
28.947456,0.058640502
28.092442,0.061080568
27.284779,0.06386516
26.521572,0.06663457
25.800108,0.06943676
25.117828,0.072210066
24.472345,0.0749461
23.861408,0.077941015
23.282911,0.080772266
22.734882,0.083763406
22.215462,0.08696485
21.722916,0.089984864
21.255604,0.092920445
20.812004,0.09657697
20.390675,0.09985546
19.990267,0.10304305
19.609518,0.10603198
19.247244,0.109110005
18.902327,0.112792484
18.573725,0.116248585
18.260456,0.11994081
17.961601,0.12350075
17.676302,0.1267822
17.403744,0.13027082
17.143167,0.13388997
16.893862,0.13721357
16.655159,0.1405472
16.426428,0.14389038
16.207083,0.14709319
15.996571,0.15008885
15.794373,0.15320648
15.6,0.15666811
15.412999,0.16029762
15.232939,0.16416416
15.05942,0.16737463
14.892062,0.17097971
14.730514,0.1744663
14.574441,0.17743151
14.423531,0.18076576
14.277491,0.18424344
14.136047,0.18769763
13.998942,0.19112778
13.865933,0.19463821
13.73679,0.19809029
13.611302,0.20109108
13.48927,0.20481369
13.3705015,0.2078287
13.254824,0.21132368
13.142069,0.21461126
13.032082,0.2177236
12.924716,0.22110647
12.819836,0.2241246
12.717309,0.22665527
12.617017,0.22884089
12.518845,0.23183505
12.422684,0.23460457
12.328438,0.23757687
12.23601,0.24048008
12.145311,0.24287422
12.056257,0.24494945
11.968773,0.24734704
11.882783,0.2493408
11.798219,0.25125113
11.7150135,0.2538627
11.633108,0.25656623
11.552444,0.25928017
11.472969,0.26204747
11.394629,0.26503953
11.317378,0.26714823
11.241171,0.26917484
11.165965,0.27116135
11.091721,0.2731511
11.018401,0.2751446
10.945969,0.27789468
10.874393,0.2800802
10.803641,0.28186962
10.733684,0.28433853
10.664492,0.28622875
10.596042,0.28794062
10.528306,0.29043737
10.461264,0.2928081
10.394891,0.29402524
10.329167,0.29589608
10.264075,0.29730064
10.199594,0.29927513
10.135705,0.3010182
10.072394,0.3026698
10.0096445,0.30442196
9.947442,0.30637425
9.885775,0.3077954
9.824624,0.30966187
9.763982,0.31029508
9.703834,0.31206864
9.64417,0.31324577
9.584979,0.3138661
9.526253,0.31544504
9.467979,0.31620967
9.410151,0.31774104
9.3527565,0.3184478
9.295791,0.31987813
9.239244,0.32146886
9.183109,0.32327566
9.12738,0.32397565
9.07205,0.32483014
9.01711,0.32616463
8.962557,0.32733917
8.908382,0.32829663
8.854581,0.3304008
8.801149,0.33163604
8.74808,0.3331494
8.69537,0.33477896
8.643014,0.33602223
8.591007,0.3376052
8.539344,0.33839962
8.48802,0.33913314
8.437034,0.3400342
8.38638,0.341106
8.336055,0.34339774
8.286055,0.34500217
8.236377,0.34684783
8.187016,0.34852478
8.13797,0.35038716
8.089236,0.35148
8.04081,0.35263288
7.9926906,0.35439214
7.9448724,0.35512272
7.8973556,0.3565233
7.850135,0.35755715
7.80321,0.35933483
7.7565756,0.3613078
7.710231,0.36410788
7.664174,0.36553746
7.6184006,0.3665255
7.57291,0.36687204
7.5276995,0.36946154
7.482766,0.36928475
7.4381084,0.3717624
7.3937244,0.37281471
7.349611,0.37564564
7.3057675,0.3767064
7.2621903,0.37849987
7.218879,0.37895885
7.175831,0.3807597
7.133044,0.38256824
7.090517,0.38308635
7.0482473,0.38607112
7.0062337,0.38810965
6.9644732,0.39022818
6.9229665,0.39123824
6.881709,0.39259827
6.840701,0.39438525
6.79994,0.3966781
6.7594247,0.39812407
6.719154,0.4002939
6.679125,0.40283793
6.6393356,0.40357393
6.599786,0.4054051
6.560474,0.40805596
6.5213976,0.40960962
6.482556,0.4102703
6.443947,0.4127284
6.4055705,0.41399106
6.367422,0.41571054
6.3295035,0.41697642
6.291812,0.41908938
6.254346,0.42121255
6.217103,0.42373577
6.1800838,0.42619565
6.1432858,0.4281177
6.106708,0.42901602
6.0703483,0.43214434
6.034206,0.43433133
5.9982805,0.43669036
5.9625683,0.43865594
5.92707,0.44161
5.891784,0.44409037
5.856708,0.4465846
5.8218417,0.44909278
5.787183,0.45153126
5.752732,0.45356157
5.718485,0.45653203
5.684444,0.45926592
5.650605,0.4626164
5.616968,0.46797413
5.583532,0.47051623
5.550295,0.47377026
5.5172563,0.47625607
5.4844136,0.47760642
5.4517684,0.4801109
5.419316,0.4828966
5.387058,0.4842595
5.3549924,0.48625457
5.3231173,0.48980334
5.2914324,0.49328557
5.2599363,0.4964236
5.228627,0.4992108
5.1975055,0.5024797
5.166569,0.5051133
5.135817,0.50842077
5.105248,0.51174974
5.0748606,0.51634127
5.044654,0.51933706
5.0146275,0.520901
4.9847803,0.5227567
4.955111,0.5246158
4.9256177,0.52579004
4.8963003,0.52864146
4.867158,0.53170717
4.8381886,0.5338896
4.809392,0.5358775
4.7807665,0.5384781
4.7523127,0.5408867
4.724026,0.54361266
4.695909,0.5473834
4.667959,0.5512836
4.640177,0.5531227
4.612559,0.5558044
4.585105,0.55966055
4.557816,0.56258625
4.530688,0.56392324
4.5037217,0.5640728
4.4769163,0.5688569
4.450271,0.5712831
4.423784,0.57404655
4.3974533,0.5759414
4.3712807,0.5787249
4.345264,0.5804061
4.3194017,0.58208686
4.293693,0.5852337
4.2681384,0.58941865
4.2427354,0.59169173
4.217483,0.59592366
4.192381,0.5987985
4.16743,0.60029113
4.142626,0.600845
4.11797,0.60550123
4.09346,0.6078249
4.069097,0.61241657
4.0448785,0.6160833
4.0208044,0.61892873
3.9968739,0.62287694
3.9730854,0.62782556
3.949438,0.61294013
3.925932,0.6185844
3.9025662,0.62439835
3.8793387,0.6302598
3.85625,0.63441026
3.8332987,0.6407362
3.8104842,0.6462253
3.7878044,0.6518853
3.7652605,0.65771824
3.742851,0.6623032
3.7205741,0.6673105
3.6984303,0.6716988
3.6764178,0.6737441
3.6545374,0.6783082
3.632786,0.68183607
3.6111646,0.68618685
3.5896719,0.6885409
3.5683074,0.6913058
3.5470698,0.69517165
3.525958,0.69850963
3.5049734,0.70158595
3.484112,0.70564777
3.4633756,0.71015245
3.4427624,0.714123
3.4222722,0.7178325
3.4019039,0.7221304
3.3816562,0.7276002
3.3615294,0.73022723
3.3415227,0.7356141
3.321635,0.74118525
3.3018653,0.7453296
3.2822137,0.75038254
3.2626784,0.7545785
3.24326,0.7579014
3.2239568,0.7619885
3.2047691,0.7653414
3.1856952,0.7685552
3.1667347,0.7733098
3.1478868,0.776555
3.1291518,0.7799657
3.1105278,0.7869719
3.0920146,0.7921539
3.0736122,0.7939021
3.0553188,0.797704
3.037134,0.8002472
3.0190578,0.801027
3.0010896,0.80437016
2.9832275,0.8101607
2.9654722,0.81321436
2.9478228,0.8167685
2.930278,0.82083225
2.9128375,0.8255806
2.895501,0.8283488
2.878268,0.83229846
2.8611374,0.8364351
2.8441086,0.8411024
2.8271809,0.8466526
2.8103547,0.8486189
2.7936282,0.8509254
2.7770011,0.857067
2.7604735,0.8600924
2.7440438,0.86365324
2.7277122,0.8672258
2.711477,0.87241846
2.6953394,0.875485
2.6792972,0.87964195
2.663351,0.8856364
2.6474993,0.8872794
2.631742,0.89516896
2.6160786,0.89923227
2.6005085,0.901822
2.5850313,0.9017868
2.5696461,0.9037925
2.5543516,0.90616965
2.5391486,0.9089243
2.524037,0.914366
2.5090146,0.91655815
2.4940815,0.92185175
2.4792366,0.92463595
2.4644816,0.9311546
2.4498136,0.9394983
2.4352329,0.9433332
2.420739,0.94938153
2.4063315,0.9560723
2.3920097,0.95916384
2.377773,0.9604245
2.363621,0.9649452
2.3495533,0.9639186
2.3355696,0.9688602
2.3216686,0.97612184
2.3078513,0.9800767
2.294115,0.9855226
2.280461,0.99206066
2.2668889,0.99244404
2.253397,0.99322665
2.2399855,0.99701047
2.2266536,1.0010219
2.213401,1.0063589
2.2002275,1.0104028
2.1871324,1.0135729
2.174115,1.0200871
2.1611753,1.0221599
2.1483126,1.0242211
2.1355262,1.028085
2.1228166,1.03173
2.1101818,1.0379076
2.0976226,1.0399647
2.0851378,1.0445651
2.0727284,1.0470794
2.060392,1.0531136
2.0481286,1.0577635
2.0359385,1.0612415
2.0238216,1.0668771
2.0117764,1.0710977
1.9998028,1.0753306
1.9879006,1.0773824
1.9760691,1.0828525
1.9643079,1.0858834
1.9526169,1.0908964
1.9409955,1.0984262
1.9294431,1.1037475
1.9179596,1.107325
1.9065444,1.11116
1.8951972,1.117046
1.8839173,1.1203914
1.8727047,1.124254
1.8615594,1.1317657
1.8504798,1.1309502
1.8394659,1.1374584
1.8285179,1.1445336
1.8176354,1.1524522
1.8068173,1.1588161
1.7960637,1.1652149
1.7853739,1.1686642
1.7747478,1.1772991
1.7641851,1.182975
1.753685,1.186743
1.7432475,1.1919032
1.7328722,1.1965235
1.7225585,1.2020003
1.7123064,1.2041047
1.7021154,1.2093214
1.6919845,1.2102636
1.6819143,1.2123249
1.6719041,1.2172656
1.6619537,1.2219301
1.6520622,1.225141
1.6422291,1.2315917
1.6324553,1.2365913
1.6227394,1.2451894
1.6130813,1.2484401
1.6034806,1.2547066
1.5939372,1.2570521
1.5844505,1.2642728
1.5750202,1.2752261
1.5656462,1.2785294
1.5563277,1.2836944
1.5470649,1.2866832
1.5378572,1.2921818
1.5287046,1.2948481
1.5196058,1.3022825
1.5105615,1.3091176
1.5015709,1.3156654
1.4926344,1.3177001
1.4837507,1.3190597
1.4749194,1.3210455
1.466141,1.3230077
1.4574152,1.332923
1.4487412,1.3385628
1.4401187,1.3395132
1.4315474,1.3465182
1.4230273,1.3521972
1.4145577,1.3561836
1.4061385,1.3677491
1.3977697,1.3762848
1.3894506,1.3859197
1.3811809,1.3942177
1.3729603,1.4000956
1.3647891,1.4067036
