energy,intensity
97.76732,0.0038575262
92.828835,0.003984466
88.18945,0.0042023165
83.8307,0.00444682
79.735245,0.0047390168
75.88682,0.0049984967
72.27017,0.0053190226
68.87099,0.0055604447
65.67586,0.0059084124
62.672165,0.0061799902
59.848106,0.0062773363
57.19261,0.0068483213
54.69525,0.0073337257
52.346306,0.0075934045
50.136597,0.008319406
48.057564,0.0087095555
46.10113,0.009142222
44.25976,0.0095389895
42.52636,0.009996153
40.894283,0.010341788
39.357292,0.010745659
37.909534,0.01132855
36.545517,0.011791142
35.260098,0.012220992
34.04844,0.012890655
32.906017,0.0141773475
31.828575,0.014817084
30.812122,0.0154709695
29.85292,0.016138455
28.947456,0.017145319
28.092442,0.018055154
27.284779,0.019042365
26.521572,0.020357518
25.800108,0.021123948
25.117828,0.02213169
24.472345,0.02274513
23.861408,0.02387565
23.282911,0.024874609
22.734882,0.025985623
22.215462,0.026462352
21.722916,0.027263071
21.255604,0.027930832
20.812004,0.029433975
20.390675,0.030897459
19.990267,0.03293403
19.609518,0.034981657
19.247244,0.036470678
18.902327,0.03771282
18.573725,0.03841915
18.260456,0.03995373
17.961601,0.041023068
17.676302,0.04209629
17.403744,0.043423604
17.143167,0.04577917
16.893862,0.04783119
16.655159,0.04956383
16.426428,0.050829075
16.207083,0.05196535
15.996571,0.052785493
15.794373,0.05456543
15.6,0.055385046
15.412999,0.0575657
15.232939,0.059343338
15.05942,0.06171598
14.892062,0.063483045
14.730514,0.064820565
14.574441,0.06556456
14.423531,0.06685511
14.277491,0.068302386
14.136047,0.06934565
13.998942,0.071166806
13.865933,0.07321204
13.73679,0.07485253
13.611302,0.07687729
13.48927,0.0773573
13.3705015,0.07885967
13.254824,0.07993166
13.142069,0.08078332
13.032082,0.08174392
12.924716,0.083434984
12.819836,0.084684394
12.717309,0.08605281
12.617017,0.08737038
12.518845,0.089100346
12.422684,0.090258
12.328438,0.0920679
12.23601,0.092347644
12.145311,0.09357575
12.056257,0.09480941
11.968773,0.096109554
11.882783,0.097966954
11.798219,0.09977778
11.7150135,0.10092064
11.633108,0.10113148
11.552444,0.10246664
11.472969,0.104189835
11.394629,0.10445976
11.317378,0.10549382
11.241171,0.1066615
11.165965,0.10855131
11.091721,0.10895034
11.018401,0.110664584
10.945969,0.111197725
10.874393,0.11199645
10.803641,0.11286442
10.733684,0.11373542
10.664492,0.11460964
10.596042,0.11535001
10.528306,0.11629919
10.461264,0.1176002
10.394891,0.11856083
10.329167,0.11966696
10.264075,0.12049665
10.199594,0.121187195
10.135705,0.12209445
10.072394,0.12351118
10.0096445,0.124285474
9.947442,0.124113
9.885775,0.1256958
9.824624,0.12559056
9.763982,0.12726367
9.703834,0.12745342
9.64417,0.12997493
9.584979,0.13259706
9.526253,0.13387217
9.467979,0.13484964
9.410151,0.13629611
9.3527565,0.13588935
9.295791,0.13492417
9.239244,0.13606454
9.183109,0.13634236
9.12738,0.13725442
9.07205,0.13929304
9.01711,0.14006115
8.962557,0.1404272
8.908382,0.14242318
8.854581,0.14304237
8.801149,0.14358051
8.74808,0.14461765
8.69537,0.14708214
8.643014,0.14570302
8.591007,0.14700799
8.539344,0.14815268
8.48802,0.1489629
8.437034,0.14865732
8.38638,0.14912196
8.336055,0.14775577
8.286055,0.14847197
8.236377,0.1481323
8.187016,0.14840409
8.13797,0.14876275
8.089236,0.14920983
8.04081,0.14857212
7.9926906,0.14828467
7.9448724,0.14890276
7.8973556,0.14989068
7.850135,0.15134773
7.80321,0.1503954
7.7565756,0.1506438
7.710231,0.15022984
7.664174,0.15113263
7.6184006,0.15146837
7.57291,0.15650436
7.5276995,0.1586027
7.482766,0.15955508
7.4381084,0.15826605
7.3937244,0.15842986
7.349611,0.15997401
7.3057675,0.15944207
7.2621903,0.16129936
7.218879,0.16347507
7.175831,0.1655697
7.133044,0.16880408
7.090517,0.16930409
7.0482473,0.17104113
7.0062337,0.1721705
6.9644732,0.17226382
6.9229665,0.17382146
6.881709,0.17433557
6.840701,0.1738935
6.79994,0.17365351
6.7594247,0.17705947
6.719154,0.17714731
6.679125,0.17722979
6.6393356,0.1777447
6.599786,0.1798008
6.560474,0.1805459
6.5213976,0.1809592
6.482556,0.18204343
6.443947,0.18279585
6.4055705,0.18355067
6.367422,0.18487862
6.3295035,0.18656021
6.291812,0.18767777
6.254346,0.18915062
6.217103,0.1898162
6.1800838,0.19130594
6.1432858,0.19257013
6.106708,0.19300963
6.0703483,0.19428541
6.034206,0.19484696
5.9982805,0.19625625
5.9625683,0.19804105
5.92707,0.19898197
5.891784,0.20091371
5.856708,0.20174477
5.8218417,0.20220408
5.787183,0.20391734
5.752732,0.20488587
5.718485,0.20573168
5.684444,0.20862553
5.650605,0.20923185
5.616968,0.21048486
5.583532,0.20979317
5.550295,0.21052578
5.5172563,0.20981082
5.4844136,0.21066979
5.4517684,0.2131309
5.419316,0.21480945
5.387058,0.21501657
5.3549924,0.2152185
5.3231173,0.21555166
5.2914324,0.21821567
5.2599363,0.22021309
5.228627,0.21930806
5.1975055,0.21978235
5.166569,0.21955128
5.135817,0.21945098
5.105248,0.2191993
5.0748606,0.22180054
5.044654,0.22428103
5.0146275,0.22794254
4.9847803,0.22828694
4.955111,0.22980043
4.9256177,0.23088138
4.8963003,0.23404476
4.867158,0.23574468
4.8381886,0.2391088
4.809392,0.23963392
4.7807665,0.24061272
4.7523127,0.2415947
4.724026,0.2442719
4.695909,0.24527022
4.667959,0.2470502
4.640177,0.24821618
4.612559,0.24781182
4.585105,0.251039
4.557816,0.2538175
4.530688,0.253573
4.5037217,0.25735015
4.4769163,0.26246196
4.450271,0.26370683
4.423784,0.26594284
4.3974533,0.2686919
4.3712807,0.2658123
4.345264,0.26857442
4.3194017,0.27085543
4.293693,0.27298492
4.2681384,0.27427885
4.2427354,0.2802029
4.217483,0.27757314
4.192381,0.27646187
4.16743,0.2772452
4.142626,0.27785277
4.11797,0.2818104
4.09346,0.28332025
4.069097,0.28519517
4.0448785,0.28708237
4.0208044,0.28771687
3.9968739,0.28507617
3.9730854,0.28513697
3.949438,0.28831616
3.925932,0.2902275
3.9025662,0.2941996
3.8793387,0.29558647
3.85625,0.29829845
3.8332987,0.29989496
3.8104842,0.29768574
3.7878044,0.29908445
3.7652605,0.30126116
3.742851,0.30675372
3.7205741,0.3076138
3.6984303,0.31024158
3.6764178,0.31368038
3.6545374,0.31396773
3.632786,0.31104684
3.6111646,0.3117019
3.5896719,0.31356812
3.5683074,0.3123909
3.5470698,0.3113932
3.525958,0.31366986
3.5049734,0.32798728
3.484112,0.32661408
3.4633756,0.32982856
3.4427624,0.33032584
3.4222722,0.3295433
3.4019039,0.33258432
3.3816562,0.3386585
3.3615294,0.34047005
3.3415227,0.34120375
3.321635,0.34893462
3.3018653,0.35146397
3.2822137,0.3546753
3.2626784,0.3554626
3.24326,0.36364037
3.2239568,0.3644652
3.2047691,0.3643799
3.1856952,0.36428058
3.1667347,0.36646163
3.1478868,0.3656549
3.1291518,0.36714748
3.1105278,0.36864486
3.0920146,0.3703821
3.0736122,0.37023538
3.0553188,0.3729278
3.037134,0.3749215
3.0190578,0.37909183
3.0010896,0.3777295
2.9832275,0.3812091
2.9654722,0.38496178
2.9478228,0.3877597
2.930278,0.3923132
2.9128375,0.39740628
2.895501,0.40179348
2.878268,0.4036942
2.8611374,0.40687317
2.8441086,0.40471035
2.8271809,0.40687647
2.8103547,0.41086403
2.7936282,0.41514474
2.7770011,0.41449037
2.7604735,0.41749844
2.7440438,0.41867405
2.7277122,0.41878328
2.711477,0.4202187
2.6953394,0.4232739
2.6792972,0.42906284
2.663351,0.4327231
2.6474993,0.43586287
2.631742,0.4423383
2.6160786,0.44165343
2.6005085,0.4465332
2.5850313,0.44892564
2.5696461,0.4470888
2.5543516,0.4517572
2.5391486,0.46075815
2.524037,0.45545563
2.5090146,0.46020994
2.4940815,0.4682098
2.4792366,0.46866846
2.4644816,0.47088474
2.4498136,0.4740007
2.4352329,0.48131472
2.420739,0.48059434
2.4063315,0.4886054
2.3920097,0.48910064
2.377773,0.49172345
2.363621,0.49712715
2.3495533,0.4994851
2.3355696,0.49563068
2.3216686,0.49859834
2.3078513,0.5094551
2.294115,0.5074376
2.280461,0.5139809
2.2668889,0.52475154
2.253397,0.5211215
2.2399855,0.5235927
2.2266536,0.52738035
2.213401,0.5236437
2.2002275,0.5257882
2.1871324,0.531262
2.174115,0.5377852
2.1611753,0.5433588
2.1483126,0.5445825
2.1355262,0.54818356
2.1228166,0.54770005
2.1101818,0.5499464
2.0976226,0.5476964
2.0851378,0.55167264
2.0727284,0.5518203
2.060392,0.55865103
2.0481286,0.56164116
2.0359385,0.5678594
2.0238216,0.57305455
2.0117764,0.57540196
1.9998028,0.5824808
1.9879006,0.58669937
1.9760691,0.5828575
1.9643079,0.58597744
1.9526169,0.5894858
1.9409955,0.5911435
1.9294431,0.59355295
1.9179596,0.5952125
1.9065444,0.60182536
1.8951972,0.60389507
1.8839173,0.60789645
1.8727047,0.61852074
1.8615594,0.6175395
1.8504798,0.61416864
1.8394659,0.6225866
1.8285179,0.6215453
1.8176354,0.6216685
1.8068173,0.62981474
1.7960637,0.631158
1.7853739,0.6353441
1.7747478,0.6330064
1.7641851,0.6318537
1.753685,0.6352225
1.7432475,0.63944256
1.7328722,0.63698107
1.7225585,0.6403731
1.7123064,0.6446317
1.7021154,0.6455027
1.6919845,0.6545215
1.6819143,0.66319287
1.6719041,0.6728138
1.6619537,0.67990273
1.6520622,0.68617284
1.6422291,0.6845291
1.6324553,0.687292
1.6227394,0.6864812
1.6130813,0.6842846
1.6034806,0.69472635
1.5939372,0.69113564
1.5844505,0.6961911
1.5750202,0.6957457
1.5656462,0.7013038
1.5563277,0.704569
1.5470649,0.711136
1.5378572,0.70925105
1.5287046,0.7144481
1.5196058,0.7225515
1.5105615,0.7254346
1.5015709,0.73752105
1.4926344,0.749726
1.4837507,0.75764316
1.4749194,0.7602089
1.466141,0.76376927
1.4574152,0.7588688
1.4487412,0.7619074
1.4401187,0.76495546
1.4315474,0.77308893
1.4230273,0.78384554
1.4145577,0.7782646
1.4061385,0.7901594
1.3977697,0.787092
1.3894506,0.7855288
1.3811809,0.79023206
1.3729603,0.7991978
1.3647891,0.78428245
