energy,intensity
97.76732,0.0037832004
92.828835,0.004015778
88.18945,0.004227036
83.8307,0.0044034785
79.735245,0.0046752226
75.88682,0.0049218917
72.27017,0.005288858
68.87099,0.005444383
65.67586,0.005996927
62.672165,0.00620318
59.848106,0.0063623292
57.19261,0.0066704424
54.69525,0.0072938697
52.346306,0.007523995
50.136597,0.008159975
48.057564,0.008361777
46.10113,0.008811209
44.25976,0.008980768
42.52636,0.009432268
40.894283,0.009790937
39.357292,0.010265611
37.909534,0.010964349
36.545517,0.011671838
35.260098,0.012117947
34.04844,0.012890655
32.906017,0.013735686
31.828575,0.014314811
30.812122,0.015140794
29.85292,0.015773332
28.947456,0.016492639
28.092442,0.017408479
27.284779,0.018456448
26.521572,0.019782137
25.800108,0.020898622
25.117828,0.0220449
24.472345,0.022952985
23.861408,0.024576087
23.282911,0.025561238
22.734882,0.026528984
22.215462,0.027443651
21.722916,0.028032457
21.255604,0.029059008
20.812004,0.030376703
20.390675,0.032287307
19.990267,0.0336974
19.609518,0.035463393
19.247244,0.03756555
18.902327,0.03913522
18.573725,0.04006233
18.260456,0.04126695
17.961601,0.042722255
17.676302,0.043905117
17.403744,0.045511283
17.143167,0.047559474
16.893862,0.049766798
16.655159,0.051701702
16.426428,0.053394854
16.207083,0.05496938
15.996571,0.055601917
15.794373,0.05760196
15.6,0.05901838
15.412999,0.061620288
15.232939,0.063541256
15.05942,0.06605877
14.892062,0.068118624
14.730514,0.069654964
14.574441,0.07055045
14.423531,0.0718428
14.277491,0.073493786
14.136047,0.07510303
13.998942,0.077343956
13.865933,0.079500854
13.73679,0.08072436
13.611302,0.08269648
13.48927,0.08360622
13.3705015,0.08510978
13.254824,0.086839356
13.142069,0.08819261
13.032082,0.089661814
12.924716,0.09198089
12.819836,0.09364031
12.717309,0.09553805
12.617017,0.09721897
12.518845,0.09896815
12.422684,0.09990972
12.328438,0.101734444
12.23601,0.1026217
12.145311,0.10440519
12.056257,0.10565855
11.968773,0.10782727
11.882783,0.10952486
11.798219,0.11135693
11.7150135,0.11332637
11.633108,0.11468647
11.552444,0.11555016
11.472969,0.11755401
11.394629,0.11880863
11.317378,0.11987642
11.241171,0.12107696
11.165965,0.122347996
11.091721,0.1238876
11.018401,0.12537149
10.945969,0.12706414
10.874393,0.12836824
10.803641,0.12954524
10.733684,0.13106653
10.664492,0.13225761
10.596042,0.13359204
10.528306,0.13479662
10.461264,0.13614674
10.394891,0.1376452
10.329167,0.13859136
10.264075,0.14010747
10.199594,0.14085072
10.135705,0.14145179
10.072394,0.14313444
10.0096445,0.14330581
9.947442,0.1431792
9.885775,0.1446604
9.824624,0.14489514
9.763982,0.14624158
9.703834,0.14714804
9.64417,0.14979137
9.584979,0.15124708
9.526253,0.15286598
9.467979,0.1534231
9.410151,0.15428871
9.3527565,0.15461396
9.295791,0.15399805
9.239244,0.15501918
9.183109,0.15422592
9.12738,0.15508798
9.07205,0.15667465
9.01711,0.15674277
8.962557,0.15696712
8.908382,0.15955313
8.854581,0.15929158
8.801149,0.16001095
8.74808,0.16073242
8.69537,0.16145606
8.643014,0.16058443
8.591007,0.16113362
8.539344,0.16261905
8.48802,0.16308871
8.437034,0.16329911
8.38638,0.16393882
8.336055,0.16396965
8.286055,0.16408214
8.236377,0.16374837
8.187016,0.16207291
8.13797,0.16206744
8.089236,0.1615167
8.04081,0.15995905
7.9926906,0.16019471
7.9448724,0.16106744
7.8973556,0.1617605
7.850135,0.16282609
7.80321,0.16315338
7.7565756,0.1617922
7.710231,0.16125675
7.664174,0.1628895
7.6184006,0.16444048
7.57291,0.16917056
7.5276995,0.16931778
7.482766,0.16955762
7.4381084,0.16803557
7.3937244,0.16815974
7.349611,0.16709276
7.3057675,0.1678966
7.2621903,0.16940436
7.218879,0.17132671
7.175831,0.17377225
7.133044,0.17491648
7.090517,0.1757606
7.0482473,0.17743327
7.0062337,0.17901585
6.9644732,0.17664607
6.9229665,0.17885974
6.881709,0.17676422
6.840701,0.17601803
6.79994,0.1754702
6.7594247,0.17791949
6.719154,0.17617399
6.679125,0.17733863
6.6393356,0.1788392
6.599786,0.18013111
6.560474,0.17977057
6.5213976,0.18196201
6.482556,0.18361278
6.443947,0.1815554
6.4055705,0.18184902
6.367422,0.18259615
6.3295035,0.1850677
6.291812,0.1843285
6.254346,0.18473557
6.217103,0.18747856
6.1800838,0.1871906
6.1432858,0.18760213
6.106708,0.18824984
6.0703483,0.18806064
6.034206,0.18798277
5.9982805,0.18995667
5.9625683,0.1898757
5.92707,0.19101287
5.891784,0.1922802
5.856708,0.19194289
5.8218417,0.19134496
5.787183,0.1946255
5.752732,0.19806474
5.718485,0.19734481
5.684444,0.20133898
5.650605,0.19997267
5.616968,0.19974717
5.583532,0.19977202
5.550295,0.19992094
5.5172563,0.19835222
5.4844136,0.19980502
5.4517684,0.20180123
5.419316,0.20394826
5.387058,0.20355082
5.3549924,0.2017843
5.3231173,0.20367515
5.2914324,0.20352145
5.2599363,0.204602
5.228627,0.20443735
5.1975055,0.20552167
5.166569,0.20647101
5.135817,0.20629242
5.105248,0.20510793
5.0748606,0.20662245
5.044654,0.20843585
5.0146275,0.20910427
4.9847803,0.2093359
4.955111,0.2123491
4.9256177,0.21435824
4.8963003,0.21846159
4.867158,0.2203668
4.8381886,0.22393921
4.809392,0.2240713
4.7807665,0.22510894
4.7523127,0.22446899
4.724026,0.22504394
4.695909,0.22530818
4.667959,0.22556753
4.640177,0.2269181
4.612559,0.22701645
4.585105,0.23027757
4.557816,0.23484495
4.530688,0.23689267
4.5037217,0.23814976
4.4769163,0.24054956
4.450271,0.24264292
4.423784,0.24163182
4.3974533,0.24423532
4.3712807,0.24470022
4.345264,0.2470015
4.3194017,0.24881688
4.293693,0.24844506
4.2681384,0.25333765
4.2427354,0.2553683
4.217483,0.25431287
4.192381,0.25306228
4.16743,0.2556236
4.142626,0.25522462
4.11797,0.2574586
4.09346,0.25953272
4.069097,0.26072946
4.0448785,0.26157194
4.0208044,0.2624152
3.9968739,0.25635037
3.9730854,0.2560563
3.949438,0.2583254
3.925932,0.26190814
3.9025662,0.26291764
3.8793387,0.26673967
3.85625,0.268902
3.8332987,0.26766855
3.8104842,0.2662199
3.7878044,0.2685813
3.7652605,0.27154034
3.742851,0.2720012
3.7205741,0.27616888
3.6984303,0.27939427
3.6764178,0.28067183
3.6545374,0.27956846
3.632786,0.27824193
3.6111646,0.2784993
3.5896719,0.27794
3.5683074,0.27817863
3.5470698,0.27800035
3.525958,0.28337455
3.5049734,0.29253483
3.484112,0.2961635
3.4633756,0.29667786
3.4427624,0.2959213
3.4222722,0.29408342
3.4019039,0.29798025
3.3816562,0.3012686
3.3615294,0.30242386
3.3415227,0.30401707
3.321635,0.3097752
3.3018653,0.31162995
3.2822137,0.31261012
3.2626784,0.31470466
3.24326,0.32353458
3.2239568,0.32118917
3.2047691,0.32243198
3.1856952,0.3239063
3.1667347,0.32722244
3.1478868,0.32756582
3.1291518,0.3285982
3.1105278,0.33009836
3.0920146,0.33160478
3.0736122,0.3338265
3.0553188,0.3372523
3.037134,0.3380753
3.0190578,0.34058094
3.0010896,0.34237787
2.9832275,0.3444279
2.9654722,0.34452975
2.9478228,0.34609953
2.930278,0.34866777
2.9128375,0.3532501
2.895501,0.35762382
2.878268,0.36153227
2.8611374,0.36318892
2.8441086,0.35693204
2.8271809,0.35984024
2.8103547,0.361219
2.7936282,0.3644222
2.7770011,0.36267906
2.7604735,0.36511377
2.7440438,0.36624056
2.7277122,0.36576933
2.711477,0.37090737
2.6953394,0.37393683
2.6792972,0.37536216
2.663351,0.37679103
2.6474993,0.37904707
2.631742,0.38131648
2.6160786,0.38054413
2.6005085,0.3850581
2.5850313,0.38961238
2.5696461,0.38911718
2.5543516,0.39372292
2.5391486,0.39779738
2.524037,0.397588
2.5090146,0.3985204
2.4940815,0.40585956
2.4792366,0.40154833
2.4644816,0.4054268
2.4498136,0.40874416
2.4352329,0.4159658
2.420739,0.41455388
2.4063315,0.41763988
2.3920097,0.4183177
2.377773,0.41990557
2.363621,0.42580146
2.3495533,0.43453652
2.3355696,0.43216008
2.3216686,0.43725163
2.3078513,0.44018435
2.294115,0.4387023
2.280461,0.4419662
2.2668889,0.4494207
2.253397,0.45049915
2.2399855,0.44995236
2.2266536,0.45754164
2.213401,0.44944715
2.2002275,0.45610142
2.1871324,0.45982894
2.174115,0.46258217
2.1611753,0.46736923
2.1483126,0.4691527
2.1355262,0.46923956
2.1228166,0.4696529
2.1101818,0.4748754
2.0976226,0.46975094
2.0851378,0.47639704
2.0727284,0.47469163
2.060392,0.47964993
2.0481286,0.48074785
2.0359385,0.4836263
2.0238216,0.49047145
2.0117764,0.48835117
1.9998028,0.4949088
1.9879006,0.4993342
1.9760691,0.49644017
1.9643079,0.49941263
1.9526169,0.50649637
1.9409955,0.5084059
1.9294431,0.5095667
1.9179596,0.5141333
1.9065444,0.5187361
1.8951972,0.51340663
1.8839173,0.5184092
1.8727047,0.5316019
1.8615594,0.5277583
1.8504798,0.52345705
1.8394659,0.52817154
1.8285179,0.53252614
1.8176354,0.5309169
1.8068173,0.5377154
1.7960637,0.53648436
1.7853739,0.5368474
1.7747478,0.5314633
1.7641851,0.53423345
1.753685,0.5357747
1.7432475,0.5389826
1.7328722,0.5375969
1.7225585,0.5408157
1.7123064,0.54617566
1.7021154,0.5460304
1.6919845,0.5531651
1.6819143,0.5607976
1.6719041,0.56980556
1.6619537,0.5758405
1.6520622,0.58280694
1.6422291,0.58231425
1.6324553,0.5813493
1.6227394,0.57587403
1.6130813,0.57301515
1.6034806,0.57508653
1.5939372,0.5744268
1.5844505,0.577866
1.5750202,0.58086455
1.5656462,0.5861989
1.5563277,0.5859735
1.5470649,0.6026337
1.5378572,0.59726405
1.5287046,0.5998893
1.5196058,0.61017585
1.5105615,0.6114239
1.5015709,0.61556876
1.4926344,0.6260699
1.4837507,0.6303081
1.4749194,0.62964803
1.466141,0.63639176
1.4574152,0.64020205
1.4487412,0.6410255
1.4401187,0.6499095
1.4315474,0.6593845
1.4230273,0.66639626
1.4145577,0.66627675
1.4061385,0.6656149
1.3977697,0.66440135
1.3894506,0.6615805
1.3811809,0.662385
1.3729603,0.6589412
1.3647891,0.6554323
