energy,intensity
97.76732,0.003448733
92.828835,0.0036322053
88.18945,0.0038232845
83.8307,0.0040220744
79.735245,0.0042560017
75.88682,0.0045005623
72.27017,0.004786115
68.87099,0.0051067467
65.67586,0.005410512
62.672165,0.0055654696
59.848106,0.005888797
57.19261,0.006213041
54.69525,0.0064435825
52.346306,0.0070381286
50.136597,0.0074932626
48.057564,0.007832552
46.10113,0.008369861
44.25976,0.00898077
42.52636,0.009432269
40.894283,0.0097909365
39.357292,0.010247148
37.909534,0.011060191
36.545517,0.011890561
35.260098,0.012550731
34.04844,0.013082733
32.906017,0.013868185
31.828575,0.014954068
30.812122,0.015895477
29.85292,0.01684436
28.947456,0.017747788
28.092442,0.018494893
27.284779,0.019654915
26.521572,0.020521913
25.800108,0.02179991
25.117828,0.02302853
24.472345,0.023932865
23.861408,0.024789263
23.282911,0.025436398
22.734882,0.026497025
22.215462,0.027312806
21.722916,0.028300071
21.255604,0.029059004
20.812004,0.02978313
20.390675,0.030826185
19.990267,0.032025255
19.609518,0.033128813
19.247244,0.034507453
18.902327,0.03544467
18.573725,0.036697723
18.260456,0.037446674
17.961601,0.038110193
17.676302,0.039054178
17.403744,0.040083334
17.143167,0.040777374
16.893862,0.04176626
16.655159,0.043368347
16.426428,0.04441461
16.207083,0.04555375
15.996571,0.046970904
15.794373,0.047710247
15.6,0.04788547
15.412999,0.048890766
15.232939,0.04946868
15.05942,0.050714213
14.892062,0.0517721
14.730514,0.053425156
14.574441,0.05404713
14.423531,0.05446147
14.277491,0.054407794
14.136047,0.055209212
13.998942,0.055334657
13.865933,0.055813044
13.73679,0.056866758
13.611302,0.057497807
13.48927,0.057964098
13.3705015,0.05858768
13.254824,0.059044164
13.142069,0.05949545
13.032082,0.06033214
12.924716,0.06072087
12.819836,0.06178447
12.717309,0.06256826
12.617017,0.063929535
12.518845,0.06588201
12.422684,0.066158004
12.328438,0.067076355
12.23601,0.06758304
12.145311,0.068327054
12.056257,0.068229035
11.968773,0.06818132
11.882783,0.06867471
11.798219,0.06953648
11.7150135,0.06984429
11.633108,0.06996124
11.552444,0.06963203
11.472969,0.06808758
11.394629,0.067599095
11.317378,0.0678679
11.241171,0.06722906
11.165965,0.06709616
11.091721,0.06728323
11.018401,0.0688521
10.945969,0.06924133
10.874393,0.07029848
10.803641,0.07116243
10.733684,0.07094924
10.664492,0.07066004
10.596042,0.0701564
10.528306,0.07060776
10.461264,0.07133811
10.394891,0.07172371
10.329167,0.07168762
10.264075,0.07214224
10.199594,0.07202836
10.135705,0.071693756
10.072394,0.071639374
10.0096445,0.071652904
9.947442,0.07202791
9.885775,0.0722567
9.824624,0.07211472
9.763982,0.07204165
9.703834,0.072338425
9.64417,0.07248456
9.584979,0.07240149
9.526253,0.07284781
9.467979,0.074217185
9.410151,0.07567715
9.3527565,0.07583077
9.295791,0.075357415
9.239244,0.075032115
9.183109,0.074145555
9.12738,0.074439034
9.07205,0.07401194
9.01711,0.07422113
8.962557,0.074916124
8.908382,0.07545328
8.854581,0.07541934
8.801149,0.07571208
8.74808,0.07583912
8.69537,0.07487816
8.643014,0.07516359
8.591007,0.076633625
8.539344,0.075310245
8.48802,0.075423166
8.437034,0.075792834
8.38638,0.07642391
8.336055,0.07566489
8.286055,0.07612147
8.236377,0.07605125
8.187016,0.07535592
8.13797,0.07536359
8.089236,0.074649826
8.04081,0.07229787
7.9926906,0.072733134
7.9448724,0.07216479
7.8973556,0.072230935
7.850135,0.07377623
7.80321,0.07403364
7.7565756,0.07560295
7.710231,0.07558615
7.664174,0.074712984
7.6184006,0.074875735
7.57291,0.07561338
7.5276995,0.076067515
7.482766,0.07730119
7.4381084,0.07864455
7.3937244,0.07852696
7.349611,0.076823115
7.3057675,0.07748309
7.2621903,0.07634704
7.218879,0.07740907
7.175831,0.078278504
7.133044,0.07884993
7.090517,0.08065514
7.0482473,0.08237604
7.0062337,0.08287002
6.9644732,0.08420164
6.9229665,0.083656825
6.881709,0.081518516
6.840701,0.082857005
6.79994,0.08143013
6.7594247,0.080735676
6.719154,0.08143586
6.679125,0.08333827
6.6393356,0.08011646
6.599786,0.08202792
6.560474,0.08119028
6.5213976,0.08234533
6.482556,0.08261453
6.443947,0.08310952
6.4055705,0.083267115
6.367422,0.08319537
6.3295035,0.081971675
6.291812,0.082693726
6.254346,0.08446713
6.217103,0.08462248
6.1800838,0.08548212
6.1432858,0.08717702
6.106708,0.08829418
6.0703483,0.08870332
6.034206,0.089355044
5.9982805,0.09037479
5.9625683,0.08799118
5.92707,0.08839556
5.891784,0.08806161
5.856708,0.08697605
5.8218417,0.089244395
5.787183,0.08839765
5.752732,0.08665334
5.718485,0.08945961
5.684444,0.092552006
5.650605,0.09194886
5.616968,0.094569415
5.583532,0.09201227
5.550295,0.09164678
5.5172563,0.090351686
5.4844136,0.090627745
5.4517684,0.08930436
5.419316,0.09091185
5.387058,0.09118645
5.3549924,0.09241096
5.3231173,0.09241829
5.2914324,0.09242235
5.2599363,0.092008725
5.228627,0.09242069
5.1975055,0.09283428
5.166569,0.091983676
5.135817,0.091827005
5.105248,0.09152282
5.0748606,0.08920706
5.044654,0.0881567
5.0146275,0.090858206
4.9847803,0.09096489
4.955111,0.09106962
4.9256177,0.09131986
4.8963003,0.092905544
4.867158,0.092566
4.8381886,0.094622195
4.809392,0.09594422
4.7807665,0.0968227
4.7523127,0.09801404
4.724026,0.09860093
4.695909,0.09717963
4.667959,0.09589344
4.640177,0.0969374
4.612559,0.09720274
4.585105,0.09794324
4.557816,0.09852966
4.530688,0.09976117
4.5037217,0.10164927
4.4769163,0.10160865
4.450271,0.10319672
4.423784,0.10529299
4.3974533,0.106253944
4.3712807,0.10605894
4.345264,0.10585779
4.3194017,0.10413635
4.293693,0.104252145
4.2681384,0.107600376
4.2427354,0.10601809
4.217483,0.10785898
4.192381,0.11110473
4.16743,0.109503135
4.142626,0.10752765
4.11797,0.10887728
4.09346,0.10864159
4.069097,0.10822058
4.0448785,0.10922786
4.0208044,0.11042402
3.9968739,0.11072155
3.9730854,0.109738395
3.949438,0.10763557
3.925932,0.10735456
3.9025662,0.10911454
3.8793387,0.1090186
3.85625,0.11080195
3.8332987,0.11222365
3.8104842,0.11308626
3.7878044,0.11357151
3.7652605,0.11386554
3.742851,0.1122175
3.7205741,0.11347532
3.6984303,0.11533363
3.6764178,0.115826525
3.6545374,0.117713034
3.632786,0.12001809
3.6111646,0.11630966
3.5896719,0.11518417
3.5683074,0.11648474
3.5470698,0.119640544
3.525958,0.11953251
3.5049734,0.121492125
3.484112,0.12305385
3.4633756,0.12358079
3.4427624,0.12115465
3.4222722,0.123791054
3.4019039,0.1232506
3.3816562,0.12140995
3.3615294,0.124730945
3.3415227,0.12721746
3.321635,0.12797914
3.3018653,0.12676473
3.2822137,0.13062324
3.2626784,0.1298463
3.24326,0.13039967
3.2239568,0.13118042
3.2047691,0.13604726
3.1856952,0.13321216
3.1667347,0.13423923
3.1478868,0.13227287
3.1291518,0.13213593
3.1105278,0.1301237
3.0920146,0.13466303
3.0736122,0.1378335
3.0553188,0.13889658
3.037134,0.1380534
3.0190578,0.13863929
3.0010896,0.13922721
2.9832275,0.14079161
2.9654722,0.14089943
2.9478228,0.14248256
2.930278,0.14333567
2.9128375,0.14618966
2.895501,0.14857073
2.878268,0.15223739
2.8611374,0.15340286
2.8441086,0.15329936
2.8271809,0.15318915
2.8103547,0.1507449
2.7936282,0.1503469
2.7770011,0.15124711
2.7604735,0.15162617
2.7440438,0.14962104
2.7277122,0.15184888
2.711477,0.15356208
2.6953394,0.15205505
2.6792972,0.15242308
2.663351,0.1541542
2.6474993,0.15562612
2.631742,0.15572956
2.6160786,0.15610644
2.6005085,0.15843827
2.5850313,0.15770023
2.5696461,0.15977558
2.5543516,0.15987882
2.5391486,0.16083609
2.524037,0.16323853
2.5090146,0.16740172
2.4940815,0.16636452
2.4792366,0.16911927
2.4644816,0.17691348
2.4498136,0.17441328
2.4352329,0.17605436
2.420739,0.17320606
2.4063315,0.18239659
2.3920097,0.17589393
2.377773,0.1815312
2.363621,0.18108092
2.3495533,0.18309297
2.3355696,0.1820113
2.3216686,0.18591802
2.3078513,0.18262298
2.294115,0.1821327
2.280461,0.18864022
2.2668889,0.18752573
2.253397,0.18993843
2.2399855,0.19334652
2.2266536,0.19450417
2.213401,0.19369891
2.2002275,0.19452837
2.1871324,0.19037716
2.174115,0.19285396
2.1611753,0.19400865
2.1483126,0.1968615
2.1355262,0.19974157
2.1228166,0.2016221
2.1101818,0.20627293
2.0976226,0.20335087
2.0851378,0.20665944
2.0727284,0.20544259
2.060392,0.20631997
2.0481286,0.20329778
2.0359385,0.20415811
2.0238216,0.2057395
2.0117764,0.20877735
1.9998028,0.2136611
1.9879006,0.21494034
1.9760691,0.21806593
1.9643079,0.21826176
1.9526169,0.21882431
1.9409955,0.2212576
1.9294431,0.22446546
1.9179596,0.22277844
1.9065444,0.220682
1.8951972,0.22238672
1.8839173,0.22873262
1.8727047,0.23165426
1.8615594,0.23265085
1.8504798,0.24464647
1.8394659,0.2441361
1.8285179,0.24122636
1.8176354,0.24466956
1.8068173,0.2453301
1.7960637,0.23911181
1.7853739,0.2446136
1.7747478,0.2419837
1.7641851,0.24178493
1.753685,0.23950334
1.7432475,0.23926993
1.7328722,0.23692843
1.7225585,0.23834701
1.7123064,0.23468156
1.7021154,0.23822124
1.6919845,0.23878865
1.6819143,0.24237859
1.6719041,0.24817614
1.6619537,0.25403437
1.6520622,0.25819448
1.6422291,0.2632804
1.6324553,0.26797265
1.6227394,0.26420346
1.6130813,0.26398343
1.6034806,0.26103216
1.5939372,0.25803614
1.5844505,0.2618742
1.5750202,0.25790575
1.5656462,0.26409122
1.5563277,0.26100332
1.5470649,0.26397517
1.5378572,0.26697326
1.5287046,0.27475113
1.5196058,0.26922336
1.5105615,0.27372164
1.5015709,0.27536052
1.4926344,0.27749598
1.4837507,0.28405493
1.4749194,0.28920454
1.466141,0.29291865
1.4574152,0.29666677
1.4487412,0.3059668
1.4401187,0.30376202
1.4315474,0.30811882
1.4230273,0.31149557
1.4145577,0.31592914
1.4061385,0.31523687
1.3977697,0.31296524
1.3894506,0.31117824
1.3811809,0.3056757
1.3729603,0.30697662
1.3647891,0.3098794
