energy,intensity
97.76732,0.0028318258
92.828835,0.0029903068
88.18945,0.0031476177
83.8307,0.00334595
79.735245,0.0035178089
75.88682,0.003772812
72.27017,0.004011891
68.87099,0.004231003
65.67586,0.004525357
62.672165,0.0046726754
59.848106,0.0049660164
57.19261,0.0052601206
54.69525,0.005473724
52.346306,0.005733229
50.136597,0.0060873707
48.057564,0.0063053546
46.10113,0.0067778537
44.25976,0.0071583455
42.52636,0.0076380866
40.894283,0.00796069
39.357292,0.008548522
37.909534,0.009009168
36.545517,0.009822638
35.260098,0.010448639
34.04844,0.01084181
32.906017,0.011328628
31.828575,0.012123069
30.812122,0.012711665
29.85292,0.013387857
28.947456,0.0139321415
28.092442,0.014356176
27.284779,0.015180625
26.521572,0.016138058
25.800108,0.017180808
25.117828,0.01831289
24.472345,0.019300701
23.861408,0.01982532
23.282911,0.020193066
22.734882,0.020999448
22.215462,0.022046506
21.722916,0.022646746
21.255604,0.022563463
20.812004,0.022799984
20.390675,0.02284345
19.990267,0.023737218
19.609518,0.025013361
19.247244,0.02548417
18.902327,0.026064519
18.573725,0.026682135
18.260456,0.027219474
17.961601,0.027389172
17.676302,0.027995676
17.403744,0.02860113
17.143167,0.029163029
16.893862,0.029464353
16.655159,0.030453831
16.426428,0.031276025
16.207083,0.031519968
15.996571,0.031707633
15.794373,0.032665648
15.6,0.03232735
15.412999,0.032908153
15.232939,0.033010922
15.05942,0.0344046
14.892062,0.034596063
14.730514,0.03556744
14.574441,0.036048036
14.423531,0.03607254
14.277491,0.03542359
14.136047,0.035675224
13.998942,0.035297908
13.865933,0.035636503
13.73679,0.03665923
13.611302,0.036997195
13.48927,0.03819382
13.3705015,0.039293967
13.254824,0.038650088
13.142069,0.038096994
13.032082,0.038474284
12.924716,0.038737666
12.819836,0.039224632
12.717309,0.03982656
12.617017,0.040027954
12.518845,0.040515985
12.422684,0.040069178
12.328438,0.040316544
12.23601,0.03984905
12.145311,0.04014663
12.056257,0.04050345
11.968773,0.040860217
11.882783,0.041155905
11.798219,0.041574072
11.7150135,0.04205544
11.633108,0.043101124
11.552444,0.043276273
11.472969,0.042689335
11.394629,0.042345107
11.317378,0.043276224
11.241171,0.042599954
11.165965,0.04288688
11.091721,0.042846374
11.018401,0.043593135
10.945969,0.04368244
10.874393,0.04483867
10.803641,0.045603145
10.733684,0.04549417
10.664492,0.045312367
10.596042,0.044644974
10.528306,0.0445871
10.461264,0.044039294
10.394891,0.045788523
10.329167,0.04537636
10.264075,0.046230502
10.199594,0.04666526
10.135705,0.046600945
10.072394,0.045378815
10.0096445,0.046534456
9.947442,0.04646019
9.885775,0.046308972
9.824624,0.045043968
9.763982,0.044281803
9.703834,0.04403209
9.64417,0.043777056
9.584979,0.04366833
9.526253,0.045158014
9.467979,0.047354706
9.410151,0.048572373
9.3527565,0.049414314
9.295791,0.04987348
9.239244,0.04931356
9.183109,0.04724108
9.12738,0.046972223
9.07205,0.046457715
9.01711,0.046740778
8.962557,0.04799821
8.908382,0.04820853
8.854581,0.04768078
8.801149,0.048465636
8.74808,0.048261255
8.69537,0.047718123
8.643014,0.048595704
8.591007,0.05066616
8.539344,0.04918567
8.48802,0.049140632
8.437034,0.05047114
8.38638,0.05181576
8.336055,0.051779896
8.286055,0.052092344
8.236377,0.052582998
8.187016,0.052544992
8.13797,0.05304026
8.089236,0.052461486
8.04081,0.051602602
7.9926906,0.05191327
7.9448724,0.05167694
7.8973556,0.052263916
7.850135,0.05331883
7.80321,0.053732593
7.7565756,0.05480511
7.710231,0.055700023
7.664174,0.054138474
7.6184006,0.053605307
7.57291,0.05488687
7.5276995,0.0542512
7.482766,0.054771192
7.4381084,0.056272376
7.3937244,0.05690502
7.349611,0.05526914
7.3057675,0.056197613
7.2621903,0.05563428
7.218879,0.056068726
7.175831,0.056506358
7.133044,0.05735467
7.090517,0.05872351
7.0482473,0.061653156
7.0062337,0.060985696
6.9644732,0.062499106
6.9229665,0.06329368
6.881709,0.061772447
6.840701,0.061717845
6.79994,0.06251526
6.7594247,0.06159993
6.719154,0.06207726
6.679125,0.0624493
6.6393356,0.06183852
6.599786,0.06209899
6.560474,0.06357874
6.5213976,0.064851135
6.482556,0.06445504
6.443947,0.06495398
6.4055705,0.06522969
6.367422,0.06482164
6.3295035,0.064291514
6.291812,0.06548512
6.254346,0.06645833
6.217103,0.06662268
6.1800838,0.067139335
6.1432858,0.06825121
6.106708,0.06901701
6.0703483,0.069789514
6.034206,0.06996668
5.9982805,0.07038573
5.9625683,0.068369865
5.92707,0.06792115
5.891784,0.067464575
5.856708,0.06811677
5.8218417,0.0691488
5.787183,0.06843284
5.752732,0.06922161
5.718485,0.07014446
5.684444,0.07222636
5.650605,0.070472695
5.616968,0.07205905
5.583532,0.06962738
5.550295,0.07004433
5.5172563,0.069278404
5.4844136,0.07022325
5.4517684,0.06971072
5.419316,0.070664525
5.387058,0.07041322
5.3549924,0.07178473
5.3231173,0.071668535
5.2914324,0.071136385
5.2599363,0.06949007
5.228627,0.070601076
5.1975055,0.071023814
5.166569,0.06962068
5.135817,0.069613084
5.105248,0.06960289
5.0748606,0.069733284
5.044654,0.06899846
5.0146275,0.07013616
4.9847803,0.071284994
4.955111,0.07097857
4.9256177,0.070813455
4.8963003,0.071831115
4.867158,0.07241051
4.8381886,0.07374523
4.809392,0.07388461
4.7807665,0.07599898
4.7523127,0.07538365
4.724026,0.076757975
4.695909,0.07690808
4.667959,0.07659022
4.640177,0.07704879
4.612559,0.07719505
4.585105,0.0762309
4.557816,0.07557128
4.530688,0.0745803
4.5037217,0.07696302
4.4769163,0.07628764
4.450271,0.07854055
4.423784,0.08065344
4.3974533,0.08196259
4.3712807,0.08145592
4.345264,0.080605775
4.3194017,0.078564905
4.293693,0.079204544
4.2681384,0.08274334
4.2427354,0.08203985
4.217483,0.084254056
4.192381,0.087185144
4.16743,0.08439415
4.142626,0.081566624
4.11797,0.083290234
4.09346,0.08325638
4.069097,0.083219126
4.0448785,0.08443599
4.0208044,0.08783318
3.9968739,0.086540975
3.9730854,0.08486437
3.949438,0.08316459
3.925932,0.08218177
3.9025662,0.082487606
3.8793387,0.083543465
3.85625,0.08498585
3.8332987,0.08625296
3.8104842,0.08753219
3.7878044,0.08671339
3.7652605,0.086653605
3.742851,0.08542509
3.7205741,0.08710843
3.6984303,0.089005336
3.6764178,0.091317154
3.6545374,0.09086969
3.632786,0.0922139
3.6111646,0.091357425
3.5896719,0.088867925
3.5683074,0.08980729
3.5470698,0.091164455
3.525958,0.09212248
3.5049734,0.09495461
3.484112,0.098443076
3.4633756,0.09693435
3.4427624,0.096881524
3.4222722,0.097886235
3.4019039,0.097404286
3.3816562,0.095194
3.3615294,0.09554779
3.3415227,0.09851198
3.321635,0.099320576
3.3018653,0.097934544
3.2822137,0.10228463
3.2626784,0.10334251
3.24326,0.10328909
3.2239568,0.10255514
3.2047691,0.105663374
3.1856952,0.10629602
3.1667347,0.105326176
3.1478868,0.10387923
3.1291518,0.10543007
3.1105278,0.10465963
3.0920146,0.10599132
3.0736122,0.10828086
3.0553188,0.10940485
3.037134,0.108624354
3.0190578,0.11144096
3.0010896,0.113803126
2.9832275,0.11594602
2.9654722,0.11541502
2.9478228,0.11585953
2.930278,0.11506532
2.9128375,0.11525533
2.895501,0.11720022
2.878268,0.11764946
2.8611374,0.11860786
2.8441086,0.120340005
2.8271809,0.12440191
2.8103547,0.1204925
2.7936282,0.121474065
2.7770011,0.12115469
2.7604735,0.12372275
2.7440438,0.118902385
2.7277122,0.11748308
2.711477,0.11711452
2.6953394,0.11754612
2.6792972,0.11879237
2.663351,0.1216863
2.6474993,0.12378726
2.631742,0.124252304
2.6160786,0.12305187
2.6005085,0.12742124
2.5850313,0.123967566
2.5696461,0.12527536
2.5543516,0.12403409
2.5391486,0.124204375
2.524037,0.12437221
2.5090146,0.1294612
2.4940815,0.1264487
2.4792366,0.12925754
2.4644816,0.13327482
2.4498136,0.13258968
2.4352329,0.13338356
2.420739,0.13688383
2.4063315,0.14283708
2.3920097,0.13943924
2.377773,0.1433302
2.363621,0.14388093
2.3495533,0.14443314
2.3355696,0.14249772
2.3216686,0.1452289
2.3078513,0.14420918
2.294115,0.14380565
2.280461,0.15358885
2.2668889,0.15418783
2.253397,0.15382111
2.2399855,0.15895937
2.2266536,0.16089019
2.213401,0.15561572
2.2002275,0.15555665
2.1871324,0.15549128
2.174115,0.15608804
2.1611753,0.15937625
2.1483126,0.165066
2.1355262,0.16809598
2.1228166,0.16533695
2.1101818,0.16529381
2.0976226,0.1648978
2.0851378,0.16414264
2.0727284,0.16617712
2.060392,0.16893551
2.0481286,0.16639906
2.0359385,0.16846614
2.0238216,0.16875666
2.0117764,0.16904464
1.9998028,0.17296372
1.9879006,0.17144051
1.9760691,0.17283472
1.9643079,0.17497936
1.9526169,0.16970047
1.9409955,0.17183967
1.9294431,0.17738798
1.9179596,0.17466132
1.9065444,0.17380138
1.8951972,0.17752595
1.8839173,0.18167464
1.8727047,0.18431452
1.8615594,0.18697947
1.8504798,0.19830894
1.8394659,0.19554593
1.8285179,0.18996078
1.8176354,0.19309707
1.8068173,0.19385102
1.7960637,0.19177496
1.7853739,0.19577226
1.7747478,0.1940783
1.7641851,0.19524029
1.753685,0.18936506
1.7432475,0.18758097
1.7328722,0.19205879
1.7225585,0.19278689
1.7123064,0.18799984
1.7021154,0.19296773
1.6919845,0.1898284
1.6819143,0.18837264
1.6719041,0.19819322
1.6619537,0.20812456
1.6520622,0.21069023
1.6422291,0.21460672
1.6324553,0.22167835
1.6227394,0.2167364
1.6130813,0.21668263
1.6034806,0.21390136
1.5939372,0.21335848
1.5844505,0.21738768
1.5750202,0.21223012
1.5656462,0.21582143
1.5563277,0.2143122
1.5470649,0.20995888
1.5378572,0.21074347
1.5287046,0.22103684
1.5196058,0.21566561
1.5105615,0.21503265
1.5015709,0.21777193
1.4926344,0.21664158
1.4837507,0.22136693
1.4749194,0.23944359
1.466141,0.24533796
1.4574152,0.24481241
1.4487412,0.24728134
1.4401187,0.24724817
1.4315474,0.24568287
1.4230273,0.25021777
1.4145577,0.25479814
1.4061385,0.2573573
1.3977697,0.2542193
1.3894506,0.25208047
1.3811809,0.24727635
1.3729603,0.24293494
1.3647891,0.2427921
