energy,intensity
97.76732,0.003478463
92.828835,0.0036948298
88.18945,0.0038892035
83.8307,0.0041000894
79.735245,0.0043289103
75.88682,0.0046537733
72.27017,0.004967103
68.87099,0.0052544633
65.67586,0.005620736
62.672165,0.0058669327
59.848106,0.0062530525
57.19261,0.0064798584
54.69525,0.006722582
52.346306,0.0071630664
50.136597,0.0075367442
48.057564,0.00781743
46.10113,0.008417147
44.25976,0.008767333
42.52636,0.009141782
40.894283,0.009453319
39.357292,0.009896347
37.909534,0.010504307
36.545517,0.011095206
35.260098,0.011499686
34.04844,0.011823548
32.906017,0.0124107
31.828575,0.013218941
30.812122,0.014221029
29.85292,0.014970062
28.947456,0.015739555
28.092442,0.016011663
27.284779,0.017124811
26.521572,0.017836802
25.800108,0.018898888
25.117828,0.020743035
24.472345,0.021527704
23.861408,0.022505239
23.282911,0.023314094
22.734882,0.024515342
22.215462,0.025382921
21.722916,0.026660945
21.255604,0.026836842
20.812004,0.027304117
20.390675,0.028117755
19.990267,0.030098647
19.609518,0.031387143
19.247244,0.033148296
18.902327,0.035021797
18.573725,0.036854215
18.260456,0.037924215
17.961601,0.03871704
17.676302,0.04061634
17.403744,0.042171005
17.143167,0.04353261
16.893862,0.044734202
16.655159,0.04659697
16.426428,0.048705667
16.207083,0.049947716
15.996571,0.051695246
15.794373,0.05304717
15.6,0.053614955
15.412999,0.055114083
15.232939,0.056099482
15.05942,0.058000468
14.892062,0.059676994
14.730514,0.061860703
14.574441,0.0633209
14.423531,0.064839885
14.277491,0.065655805
14.136047,0.0667754
13.998942,0.067688935
13.865933,0.06854786
13.73679,0.07056768
13.611302,0.072125845
13.48927,0.073909625
13.3705015,0.0761966
13.254824,0.0759296
13.142069,0.076138705
13.032082,0.07739465
12.924716,0.078431144
12.819836,0.07958293
12.717309,0.08182445
12.617017,0.082532465
12.518845,0.08492105
12.422684,0.08516894
12.328438,0.08558426
12.23601,0.08569626
12.145311,0.08603705
12.056257,0.08673284
11.968773,0.087184675
11.882783,0.08775443
11.798219,0.08967683
11.7150135,0.0917404
11.633108,0.0926362
11.552444,0.09422654
11.472969,0.09399254
11.394629,0.09355462
11.317378,0.09528474
11.241171,0.09489641
11.165965,0.095860966
11.091721,0.09617504
11.018401,0.09701287
10.945969,0.097588465
10.874393,0.098431244
10.803641,0.0986723
10.733684,0.0992477
10.664492,0.0991421
10.596042,0.09930249
10.528306,0.098837055
10.461264,0.09926208
10.394891,0.10038523
10.329167,0.1001094
10.264075,0.10138144
10.199594,0.10138118
10.135705,0.10159006
10.072394,0.100857854
10.0096445,0.10076417
9.947442,0.10037154
9.885775,0.10085064
9.824624,0.10081269
9.763982,0.10106669
9.703834,0.10116897
9.64417,0.10164414
9.584979,0.10189277
9.526253,0.101605535
9.467979,0.10200064
9.410151,0.103013575
9.3527565,0.103568055
9.295791,0.10342101
9.239244,0.10263828
9.183109,0.10002132
9.12738,0.09983589
9.07205,0.09924328
9.01711,0.09815562
8.962557,0.09915847
8.908382,0.098456345
8.854581,0.09659256
8.801149,0.09726155
8.74808,0.09627332
8.69537,0.09510196
8.643014,0.094585076
8.591007,0.09524224
8.539344,0.092925176
8.48802,0.092545345
8.437034,0.09267397
8.38638,0.09297377
8.336055,0.091617286
8.286055,0.09181934
8.236377,0.0908733
8.187016,0.09017857
8.13797,0.090097
8.089236,0.08902283
8.04081,0.08603446
7.9926906,0.08573417
7.9448724,0.08460384
7.8973556,0.08391671
7.850135,0.08377351
7.80321,0.084091045
7.7565756,0.085627146
7.710231,0.08642456
7.664174,0.084668405
7.6184006,0.08374636
7.57291,0.08415347
7.5276995,0.08398317
7.482766,0.08341925
7.4381084,0.08450626
7.3937244,0.08353932
7.349611,0.083150886
7.3057675,0.08335149
7.2621903,0.081850424
7.218879,0.08163687
7.175831,0.083544336
7.133044,0.083332345
7.090517,0.08434458
7.0482473,0.08608759
7.0062337,0.08535923
6.9644732,0.08607974
6.9229665,0.08491639
6.881709,0.08320801
6.840701,0.083600596
6.79994,0.083033085
6.7594247,0.08170321
6.719154,0.08186845
6.679125,0.081162326
6.6393356,0.07967866
6.599786,0.08114708
6.560474,0.08074722
6.5213976,0.0817882
6.482556,0.080708906
6.443947,0.08051588
6.4055705,0.08054448
6.367422,0.08022818
6.3295035,0.07898672
6.291812,0.08015286
6.254346,0.0823758
6.217103,0.08158356
6.1800838,0.08313049
6.1432858,0.084693015
6.106708,0.08627126
6.0703483,0.08666828
6.034206,0.08610357
5.9982805,0.08674042
5.9625683,0.08506626
5.92707,0.08533053
5.891784,0.0834982
5.856708,0.08362605
5.8218417,0.084875785
5.787183,0.08350062
5.752732,0.085011214
5.718485,0.08691812
5.684444,0.08961181
5.650605,0.08821946
5.616968,0.08978273
5.583532,0.08667634
5.550295,0.086802594
5.5172563,0.08626874
5.4844136,0.085990354
5.4517684,0.085838825
5.419316,0.087291464
5.387058,0.087004825
5.3549924,0.0890185
5.3231173,0.08845945
5.2914324,0.08679188
5.2599363,0.085791916
5.228627,0.08700054
5.1975055,0.0878011
5.166569,0.08565452
5.135817,0.08659188
5.105248,0.08625635
5.0748606,0.08476819
5.044654,0.08498766
5.0146275,0.08709057
4.9847803,0.088486694
4.955111,0.08872322
4.9256177,0.0873366
4.8963003,0.08949206
4.867158,0.08823631
4.8381886,0.09011638
4.809392,0.09126033
4.7807665,0.092870764
4.7523127,0.09205064
4.724026,0.09275563
4.695909,0.092073046
4.667959,0.091534644
4.640177,0.0920827
4.612559,0.0924765
4.585105,0.09255477
4.557816,0.09326835
4.530688,0.093506046
4.5037217,0.0953567
4.4769163,0.09511607
4.450271,0.09797157
4.423784,0.100529335
4.3974533,0.10047028
4.3712807,0.09990819
4.345264,0.10017191
4.3194017,0.09774348
4.293693,0.09782101
4.2681384,0.10079024
4.2427354,0.10087989
4.217483,0.10234541
4.192381,0.10607816
4.16743,0.10549269
4.142626,0.102966905
4.11797,0.10305401
4.09346,0.10118581
4.069097,0.10179162
4.0448785,0.103299364
4.0208044,0.107351676
3.9968739,0.1079944
3.9730854,0.10662913
3.949438,0.10303576
3.925932,0.10291229
3.9025662,0.10315607
3.8793387,0.10396103
3.85625,0.10590255
3.8332987,0.10710534
3.8104842,0.1083187
3.7878044,0.10973464
3.7652605,0.10826875
3.742851,0.10794624
3.7205741,0.10976442
3.6984303,0.1116005
3.6764178,0.11325699
3.6545374,0.11492928
3.632786,0.11701764
3.6111646,0.11490108
3.5896719,0.11113552
3.5683074,0.11261549
3.5470698,0.11472382
3.525958,0.11541072
3.5049734,0.118382275
3.484112,0.121802434
3.4633756,0.12001394
3.4427624,0.118621804
3.4222722,0.12018137
3.4019039,0.11940569
3.3816562,0.116682485
3.3615294,0.117813446
3.3415227,0.12047603
3.321635,0.121416114
3.3018653,0.11994231
3.2822137,0.12553115
3.2626784,0.12539189
3.24326,0.12659076
3.2239568,0.12644711
3.2047691,0.13219258
3.1856952,0.13161546
3.1667347,0.13171509
3.1478868,0.13042614
3.1291518,0.1309748
3.1105278,0.12895563
3.0920146,0.134428
3.0736122,0.13476002
3.0553188,0.13628039
3.037134,0.13494302
3.0190578,0.13551028
3.0010896,0.13680589
2.9832275,0.14006084
2.9654722,0.13967423
2.9478228,0.14001748
2.930278,0.13738403
2.9128375,0.13995288
2.895501,0.14430434
2.878268,0.14643064
2.8611374,0.1495932
2.8441086,0.15074436
2.8271809,0.15113291
2.8103547,0.14557356
2.7936282,0.14592494
2.7770011,0.14732198
2.7604735,0.1510997
2.7440438,0.15120994
2.7277122,0.15051687
2.711477,0.1508821
2.6953394,0.14989826
2.6792972,0.14916849
2.663351,0.1500616
2.6474993,0.15205798
2.631742,0.15241617
2.6160786,0.15277322
2.6005085,0.15480563
2.5850313,0.15376475
2.5696461,0.15609932
2.5543516,0.15561159
2.5391486,0.15511239
2.524037,0.15776844
2.5090146,0.1618989
2.4940815,0.15937199
2.4792366,0.16179177
2.4644816,0.16924722
2.4498136,0.16848084
2.4352329,0.1706832
2.420739,0.17410664
2.4063315,0.17967877
2.3920097,0.17407122
2.377773,0.17664148
2.363621,0.17708424
2.3495533,0.17628884
2.3355696,0.17765546
2.3216686,0.17903218
2.3078513,0.17915946
2.294115,0.17896518
2.280461,0.18577239
2.2668889,0.18367907
2.253397,0.18929349
2.2399855,0.1891292
2.2266536,0.19026162
2.213401,0.19107251
2.2002275,0.19386783
2.1871324,0.19037716
2.174115,0.19218549
2.1611753,0.19131875
2.1483126,0.194832
2.1355262,0.19906105
2.1228166,0.19888361
2.1101818,0.20179622
2.0976226,0.20057948
2.0851378,0.19968948
2.0727284,0.20088501
2.060392,0.20349851
2.0481286,0.20400739
2.0359385,0.20629963
2.0238216,0.20358518
2.0117764,0.20877738
1.9998028,0.21257098
1.9879006,0.21128488
1.9760691,0.21733049
1.9643079,0.2182618
1.9526169,0.21696356
1.9409955,0.21751383
1.9294431,0.22069928
1.9179596,0.22239955
1.9065444,0.21953857
1.8951972,0.21893588
1.8839173,0.22448973
1.8727047,0.22466972
1.8615594,0.22874732
1.8504798,0.24032688
1.8394659,0.24058072
1.8285179,0.23645747
1.8176354,0.2422708
1.8068173,0.24090615
1.7960637,0.23789804
1.7853739,0.24013646
1.7747478,0.23993644
1.7641851,0.23807785
1.753685,0.23453093
1.7432475,0.23468462
1.7328722,0.23273504
1.7225585,0.23370664
1.7123064,0.23383279
1.7021154,0.23352511
1.6919845,0.23964763
1.6819143,0.24021837
1.6719041,0.24296053
1.6619537,0.2518482
1.6520622,0.25863436
1.6422291,0.2628379
1.6324553,0.26441157
1.6227394,0.26778588
1.6130813,0.26398343
1.6034806,0.2614854
1.5939372,0.25758022
1.5844505,0.2595811
1.5750202,0.25698295
1.5656462,0.26269883
1.5563277,0.25773495
1.5470649,0.2616266
1.5378572,0.261303
1.5287046,0.26714557
1.5196058,0.2644414
1.5105615,0.26891106
1.5015709,0.27536052
1.4926344,0.27700916
1.4837507,0.2816062
1.4749194,0.28575575
1.466141,0.2934143
1.4574152,0.2971654
1.4487412,0.30095094
1.4401187,0.30275285
1.4315474,0.30456555
1.4230273,0.30843168
1.4145577,0.3123332
1.4061385,0.31161943
1.3977697,0.30464727
1.3894506,0.3059483
1.3811809,0.29462716
1.3729603,0.29427415
1.3647891,0.30082795
