energy,intensity
97.76732,0.0030399389
92.828835,0.0031938355
88.18945,0.0034112926
83.8307,0.0036146664
79.735245,0.0038367813
75.88682,0.00417499
72.27017,0.0043939753
68.87099,0.004621395
65.67586,0.0049236766
62.672165,0.0051480597
59.848106,0.005536684
57.19261,0.005831872
54.69525,0.0060582967
52.346306,0.0063162684
50.136597,0.0066236383
48.057564,0.006940427
46.10113,0.007203439
44.25976,0.0076016383
42.52636,0.008031098
40.894283,0.008298309
39.357292,0.0088993255
37.909534,0.009450043
36.545517,0.010120897
35.260098,0.010592901
34.04844,0.011012549
32.906017,0.011505294
31.828575,0.0121459
30.812122,0.012971086
29.85292,0.013460884
28.947456,0.014383992
28.092442,0.0150028495
27.284779,0.01611277
26.521572,0.017371017
25.800108,0.018335585
25.117828,0.019296521
24.472345,0.020310275
23.861408,0.021043465
23.282911,0.022003265
22.734882,0.02320487
22.215462,0.024597883
21.722916,0.0258581
21.255604,0.026187295
20.812004,0.026640713
20.390675,0.027761385
19.990267,0.029153522
19.609518,0.030386608
19.247244,0.03194016
18.902327,0.033484064
18.573725,0.03485892
18.260456,0.035735514
17.961601,0.036572836
17.676302,0.0374509
17.403744,0.038454942
17.143167,0.039505728
16.893862,0.040303793
16.655159,0.04166677
16.426428,0.042954765
16.207083,0.04407415
15.996571,0.045426406
15.794373,0.046007954
15.6,0.04639487
15.412999,0.047429238
15.232939,0.04789446
15.05942,0.0496044
14.892062,0.05040583
14.730514,0.051501263
14.574441,0.05220235
14.423531,0.052547008
14.277491,0.052677326
14.136047,0.052947383
13.998942,0.053569764
13.865933,0.054660104
13.73679,0.055491388
13.611302,0.056483455
13.48927,0.057317656
13.3705015,0.058261592
13.254824,0.058386303
13.142069,0.058444887
13.032082,0.059161186
12.924716,0.059708863
12.819836,0.05985724
12.717309,0.060568374
12.617017,0.061222613
12.518845,0.062457312
12.422684,0.06264831
12.328438,0.06318617
12.23601,0.062297545
12.145311,0.06288243
12.056257,0.062985286
11.968773,0.062959954
11.882783,0.06329326
11.798219,0.06473237
11.7150135,0.065192126
11.633108,0.06590099
11.552444,0.06629824
11.472969,0.06568077
11.394629,0.0650482
11.317378,0.06568483
11.241171,0.06587155
11.165965,0.066966
11.091721,0.067152195
11.018401,0.06733525
10.945969,0.06724973
10.874393,0.067759186
10.803641,0.06867376
10.733684,0.068376645
10.664492,0.06786634
10.596042,0.06693317
10.528306,0.068261065
10.461264,0.06786497
10.394891,0.06948671
10.329167,0.06922534
10.264075,0.07086789
10.199594,0.06953481
10.135705,0.06918447
10.072394,0.06803216
10.0096445,0.06831345
9.947442,0.06815623
9.885775,0.0676993
9.824624,0.06701122
9.763982,0.0660878
9.703834,0.066422544
9.64417,0.0659293
9.584979,0.06588156
9.526253,0.06613514
9.467979,0.06746318
9.410151,0.06888165
9.3527565,0.070003614
9.295791,0.070198074
9.239244,0.06850416
9.183109,0.0663116
9.12738,0.066636875
9.07205,0.06616219
9.01711,0.06584002
8.962557,0.06713262
8.908382,0.067622446
8.854581,0.0661458
8.801149,0.066464804
8.74808,0.066535756
8.69537,0.06601981
8.643014,0.06625158
8.591007,0.06741391
8.539344,0.06637512
8.48802,0.06677648
8.437034,0.067093894
8.38638,0.06775908
8.336055,0.06773228
8.286055,0.067000926
8.236377,0.06643455
8.187016,0.06585877
8.13797,0.06634497
8.089236,0.06503787
8.04081,0.06326063
7.9926906,0.06355057
7.9448724,0.0628355
7.8973556,0.0627535
7.850135,0.06340869
7.80321,0.063603744
7.7565756,0.0653914
7.710231,0.064936236
7.664174,0.06409389
7.6184006,0.063429765
7.57291,0.06429057
7.5276995,0.064000964
7.482766,0.063705504
7.4381084,0.064771846
7.3937244,0.06427613
7.349611,0.06367322
7.3057675,0.06465213
7.2621903,0.06323896
7.218879,0.063215725
7.175831,0.06318991
7.133044,0.06499516
7.090517,0.06579492
7.0482473,0.06825148
7.0062337,0.06855704
6.9644732,0.07001152
6.9229665,0.070116386
6.881709,0.069058426
6.840701,0.06925997
6.79994,0.0682859
6.7594247,0.067082636
6.719154,0.067268394
6.679125,0.06832433
6.6393356,0.06752985
6.599786,0.068374954
6.560474,0.068341605
6.5213976,0.069308266
6.482556,0.06938725
6.443947,0.06957745
6.4055705,0.070107736
6.367422,0.06961478
6.3295035,0.06991702
6.291812,0.070797846
6.254346,0.07284854
6.217103,0.07305118
6.1800838,0.07419426
6.1432858,0.07617639
6.106708,0.07710866
6.0703483,0.07745081
6.034206,0.07731258
5.9982805,0.07789677
5.9625683,0.07629152
5.92707,0.07589023
5.891784,0.07609806
5.856708,0.074196406
5.8218417,0.07676266
5.787183,0.0760923
5.752732,0.07692694
5.718485,0.07916666
5.684444,0.08117476
5.650605,0.08088927
5.616968,0.082020536
5.583532,0.08108011
5.550295,0.08091102
5.5172563,0.08060528
5.4844136,0.07989551
5.4517684,0.08024064
5.419316,0.08072115
5.387058,0.08106961
5.3549924,0.080740854
5.3231173,0.081770375
5.2914324,0.08088674
5.2599363,0.080127716
5.228627,0.08088548
5.1975055,0.08095038
5.166569,0.080028616
5.135817,0.08079079
5.105248,0.08170155
5.0748606,0.081045255
5.044654,0.08066626
5.0146275,0.08100437
4.9847803,0.082218274
4.955111,0.08300386
4.9256177,0.08173053
4.8963003,0.08192308
4.867158,0.0819657
4.8381886,0.08470939
4.809392,0.08415896
4.7807665,0.08739883
4.7523127,0.08731048
4.724026,0.08737181
4.695909,0.086347505
4.667959,0.086241834
4.640177,0.08519216
4.612559,0.08696259
4.585105,0.08684935
4.557816,0.085934445
4.530688,0.08676976
4.5037217,0.08874144
4.4769163,0.08716268
4.450271,0.08980726
4.423784,0.091987625
4.3974533,0.09220792
4.3712807,0.09076516
4.345264,0.09197755
4.3194017,0.090341225
4.293693,0.090035945
4.2681384,0.09295857
4.2427354,0.09231624
4.217483,0.09338588
4.192381,0.09585167
4.16743,0.09381002
4.142626,0.091565125
4.11797,0.09317213
4.09346,0.09177729
4.069097,0.09268396
4.0448785,0.09431681
4.0208044,0.09650805
3.9968739,0.09799493
3.9730854,0.09583821
3.949438,0.09420413
3.925932,0.09254704
3.9025662,0.09272873
3.8793387,0.09347127
3.85625,0.09516154
3.8332987,0.09611044
3.8104842,0.09687658
3.7878044,0.09553821
3.7652605,0.09456627
3.742851,0.09474418
3.7205741,0.097459875
3.6984303,0.100204684
3.6764178,0.10119997
3.6545374,0.10260123
3.632786,0.10521586
3.6111646,0.10302863
3.5896719,0.101216316
3.5683074,0.10019318
3.5470698,0.102431975
3.525958,0.1026331
3.5049734,0.107601404
3.484112,0.109079935
3.4633756,0.108683966
3.4427624,0.10764612
3.4222722,0.10829063
3.4019039,0.107230164
3.3816562,0.10443405
3.3615294,0.10397847
3.3415227,0.10895034
3.321635,0.10960267
3.3018653,0.10827819
3.2822137,0.11269021
3.2626784,0.11381038
3.24326,0.113819644
3.2239568,0.11382494
3.2047691,0.12062856
3.1856952,0.118157364
3.1667347,0.11794696
3.1478868,0.11865316
3.1291518,0.11913135
3.1105278,0.12007824
3.0920146,0.1207972
3.0736122,0.12270254
3.0553188,0.12367505
3.037134,0.12298
3.0190578,0.12467907
3.0010896,0.12542555
2.9832275,0.12739448
2.9654722,0.1279122
2.9478228,0.12917104
2.930278,0.12672064
2.9128375,0.12797831
2.895501,0.12999941
2.878268,0.12976786
2.8611374,0.13029084
2.8441086,0.13004896
2.8271809,0.13108465
2.8103547,0.1277324
2.7936282,0.12979776
2.7770011,0.1326683
2.7604735,0.1345156
2.7440438,0.13293764
2.7277122,0.13453278
2.711477,0.13319433
2.6953394,0.13156536
2.6792972,0.13045461
2.663351,0.1320542
2.6474993,0.13366829
2.631742,0.13474473
2.6160786,0.13694033
2.6005085,0.13887797
2.5850313,0.13661732
2.5696461,0.1419599
2.5543516,0.1428099
2.5391486,0.1410893
2.524037,0.14452511
2.5090146,0.15378949
2.4940815,0.1491745
2.4792366,0.15006773
2.4644816,0.15391473
2.4498136,0.15127684
2.4352329,0.150989
2.420739,0.15459469
2.4063315,0.16035199
2.3920097,0.15402113
2.377773,0.15922183
2.363621,0.16079004
2.3495533,0.15989706
2.3355696,0.15992102
2.3216686,0.1640085
2.3078513,0.16310123
2.294115,0.16534482
2.280461,0.16920266
2.2668889,0.1708568
2.253397,0.17542703
2.2399855,0.17809936
2.2266536,0.17590226
2.213401,0.17662714
2.2002275,0.17603335
2.1871324,0.17509383
2.174115,0.17614219
2.1611753,0.17854175
2.1483126,0.18096375
2.1355262,0.18306808
2.1228166,0.18347952
2.1101818,0.18492249
2.0976226,0.18325827
2.0851378,0.18574953
2.0727284,0.18300518
2.060392,0.18374825
2.0481286,0.18059087
2.0359385,0.18345678
2.0238216,0.18311892
2.0117764,0.18457654
1.9998028,0.19149557
1.9879006,0.19227657
1.9760691,0.19526647
1.9643079,0.19680555
1.9526169,0.19761175
1.9409955,0.1972974
1.9294431,0.20525785
1.9179596,0.20080368
1.9065444,0.20048137
1.8951972,0.2009149
1.8839173,0.20520365
1.8727047,0.20526819
1.8615594,0.20649715
1.8504798,0.21794347
1.8394659,0.2133228
1.8285179,0.21340783
1.8176354,0.21788386
1.8068173,0.21355787
1.7960637,0.21038604
1.7853739,0.21734385
1.7747478,0.21577902
1.7641851,0.21583526
1.753685,0.2154701
1.7432475,0.21425915
1.7328722,0.21050987
1.7225585,0.21303585
1.7123064,0.21176508
1.7021154,0.21516757
1.6919845,0.21645589
1.6819143,0.21818392
1.6719041,0.22296734
1.6619537,0.22517678
1.6520622,0.23356268
1.6422291,0.24071352
1.6324553,0.24215469
1.6227394,0.24136552
1.6130813,0.23830584
1.6034806,0.23973271
1.5939372,0.2366091
1.5844505,0.23573264
1.5750202,0.23437586
1.5656462,0.24042043
1.5563277,0.2357901
1.5470649,0.23485334
1.5378572,0.23767702
1.5287046,0.24527958
1.5196058,0.24531364
1.5105615,0.24582033
1.5015709,0.25261548
1.4926344,0.25023323
1.4837507,0.25466996
1.4749194,0.26062894
1.466141,0.26813704
1.4574152,0.26974243
1.4487412,0.27486852
1.4401187,0.2755051
1.4315474,0.2786775
1.4230273,0.27881408
1.4145577,0.283052
1.4061385,0.2837132
1.3977697,0.2776137
1.3894506,0.27666098
1.3811809,0.27305624
1.3729603,0.2720448
1.3647891,0.274206
