energy,intensity
97.76732,0.0030473717
92.828835,0.0032251473
88.18945,0.0033618535
83.8307,0.0035626567
79.735245,0.0037365328
75.88682,0.0040409314
72.27017,0.0042934273
68.87099,0.0044736797
65.67586,0.004824097
62.672165,0.0049857334
59.848106,0.0053424137
57.19261,0.0055269385
54.69525,0.0057527246
52.346306,0.0060108677
50.136597,0.006290283
48.057564,0.006607771
46.10113,0.0070931027
44.25976,0.0073717823
42.52636,0.0077747866
40.894283,0.008102845
39.357292,0.0084746685
37.909534,0.009028336
36.545517,0.009524379
35.260098,0.0099334195
34.04844,0.010393625
32.906017,0.011041547
31.828575,0.011597965
30.812122,0.012522994
29.85292,0.012876687
28.947456,0.013681111
28.092442,0.014252707
27.284779,0.0154469535
26.521572,0.016329851
25.800108,0.017124478
25.117828,0.017994655
24.472345,0.018974071
23.861408,0.019794863
23.282911,0.020411538
22.734882,0.021351038
22.215462,0.02227548
21.722916,0.02338268
21.255604,0.023862572
20.812004,0.02454577
20.390675,0.025338054
19.990267,0.02620909
19.609518,0.027236775
19.247244,0.028353494
18.902327,0.029447522
18.573725,0.030124992
18.260456,0.030880576
17.961601,0.0311921
17.676302,0.03202442
17.403744,0.03298524
17.143167,0.0331899
16.893862,0.03380873
16.655159,0.035078622
16.426428,0.036097933
16.207083,0.036586475
15.996571,0.036795385
15.794373,0.037358455
15.6,0.037311535
15.412999,0.03832998
15.232939,0.038926177
15.05942,0.04033976
14.892062,0.041134667
14.730514,0.04237508
14.574441,0.04292858
14.423531,0.042672403
14.277491,0.04254903
14.136047,0.042306498
13.998942,0.04199413
13.865933,0.04250177
13.73679,0.042795543
13.611302,0.04329686
13.48927,0.043957897
13.3705015,0.044239677
13.254824,0.043967895
13.142069,0.04395807
13.032082,0.04416179
12.924716,0.044078857
12.819836,0.044722885
12.717309,0.045311995
12.617017,0.045326617
12.518845,0.046204478
12.422684,0.045743205
12.328438,0.04650549
12.23601,0.045965966
12.145311,0.046010073
12.056257,0.04604857
11.968773,0.045960158
11.882783,0.0462316
11.798219,0.04699411
11.7150135,0.04707976
11.633108,0.0474737
11.552444,0.047742285
11.472969,0.047059603
11.394629,0.046171464
11.317378,0.04680767
11.241171,0.046349272
11.165965,0.04607574
11.091721,0.04599106
11.018401,0.047022555
10.945969,0.046802618
10.874393,0.047712088
10.803641,0.048697162
10.733684,0.048337556
10.664492,0.0481742
10.596042,0.047319565
10.528306,0.047002815
10.461264,0.04723458
10.394891,0.049283832
10.329167,0.048612505
10.264075,0.04969957
10.199594,0.04972879
10.135705,0.049397
10.072394,0.048408877
10.0096445,0.04878495
9.947442,0.048359506
9.885775,0.04829364
9.824624,0.047114946
9.763982,0.04710988
9.703834,0.046653047
9.64417,0.046790965
9.584979,0.04677667
9.526253,0.04767527
9.467979,0.049043205
9.410151,0.05034848
9.3527565,0.050579745
9.295791,0.051827766
9.239244,0.050965212
9.183109,0.049298484
9.12738,0.049360648
9.07205,0.047659207
9.01711,0.048030175
8.962557,0.049295455
8.908382,0.049432095
8.854581,0.04924005
8.801149,0.05028208
8.74808,0.0505871
8.69537,0.0491388
8.643014,0.04960461
8.591007,0.05032782
8.539344,0.049611155
8.48802,0.049055025
8.437034,0.05150468
8.38638,0.05233565
8.336055,0.052564442
8.286055,0.053320102
8.236377,0.052935906
8.187016,0.052811272
8.13797,0.05232591
8.089236,0.05237166
8.04081,0.051602602
7.9926906,0.051276863
7.9448724,0.05140255
7.8973556,0.05125176
7.850135,0.052485727
7.80321,0.05345322
7.7565756,0.05471143
7.710231,0.05504028
7.664174,0.055276237
7.6184006,0.054559134
7.57291,0.054982834
7.5276995,0.05463733
7.482766,0.055159647
7.4381084,0.056663156
7.3937244,0.0570033
7.349611,0.0557635
7.3057675,0.057490658
7.2621903,0.056334704
7.218879,0.056874026
7.175831,0.057316482
7.133044,0.058271527
7.090517,0.05923593
7.0482473,0.061756253
7.0062337,0.0622303
6.9644732,0.06312514
6.9229665,0.06392347
6.881709,0.06293398
6.840701,0.06341748
6.79994,0.0624084
6.7594247,0.061062403
6.719154,0.06153652
6.679125,0.061796524
6.6393356,0.06107238
6.599786,0.0626495
6.560474,0.063689515
6.5213976,0.06462828
6.482556,0.06501551
6.443947,0.06517951
6.4055705,0.06443559
6.367422,0.06436514
6.3295035,0.06440632
6.291812,0.06525413
6.254346,0.067155436
6.217103,0.06732396
6.1800838,0.06843274
6.1432858,0.069670655
6.106708,0.07044494
6.0703483,0.07098659
6.034206,0.0710505
5.9982805,0.07147605
5.9625683,0.06983233
5.92707,0.070127964
5.891784,0.06993128
5.856708,0.0703501
5.8218417,0.07139551
5.787183,0.07094414
5.752732,0.070863724
5.718485,0.07382958
5.684444,0.075166546
5.650605,0.074073486
5.616968,0.07555203
5.583532,0.074572876
5.550295,0.074364826
5.5172563,0.074019894
5.4844136,0.07433065
5.4517684,0.07357614
5.419316,0.074687175
5.387058,0.07486461
5.3549924,0.0754486
5.3231173,0.075354345
5.2914324,0.07525625
5.2599363,0.075154275
5.228627,0.07588225
5.1975055,0.07661626
5.166569,0.07524659
5.135817,0.07527267
5.105248,0.07586573
5.0748606,0.074315354
5.044654,0.07389606
5.0146275,0.075207986
4.9847803,0.076532975
4.955111,0.07699122
4.9256177,0.07730469
4.8963003,0.07761916
4.867158,0.077785306
4.8381886,0.08020358
4.809392,0.07962616
4.7807665,0.0822309
4.7523127,0.08149997
4.724026,0.083833866
4.695909,0.0835621
4.667959,0.082505725
4.640177,0.08331292
4.612559,0.083654225
4.585105,0.08336268
4.557816,0.08306464
4.530688,0.082439296
4.5037217,0.08390099
4.4769163,0.08310483
4.450271,0.08474541
4.423784,0.087223984
4.3974533,0.086920016
4.3712807,0.08644302
4.345264,0.086291656
4.3194017,0.085798934
4.293693,0.084620245
4.2681384,0.08785095
4.2427354,0.08752059
4.217483,0.09028451
4.192381,0.09411837
4.16743,0.09049703
4.142626,0.086829
4.11797,0.08823119
4.09346,0.08698429
4.069097,0.08893375
4.0448785,0.09090344
4.0208044,0.09415863
3.9968739,0.09363152
3.9730854,0.09163157
3.949438,0.09089226
3.925932,0.089770615
3.9025662,0.08937709
3.8793387,0.09159808
3.85625,0.09271184
3.8332987,0.09421477
3.8104842,0.09325324
3.7878044,0.09208502
3.7652605,0.09070643
3.742851,0.088919744
3.7205741,0.09160056
3.6984303,0.095882125
3.6764178,0.096456215
3.6545374,0.09743141
3.632786,0.10001508
3.6111646,0.09759547
3.5896719,0.09575064
3.5683074,0.09571298
3.5470698,0.09751523
3.525958,0.09768693
3.5049734,0.10055236
3.484112,0.10261439
3.4633756,0.10071101
3.4427624,0.098359
3.4222722,0.10170827
3.4019039,0.098685935
3.3816562,0.09755772
3.3615294,0.09857418
3.3415227,0.103296235
3.321635,0.103258386
3.3018653,0.103436485
3.2822137,0.10936929
3.2626784,0.10757421
3.24326,0.107994236
3.2239568,0.10796465
3.2047691,0.11359946
3.1856952,0.11405152
3.1667347,0.11450492
3.1478868,0.11172787
3.1291518,0.11402239
3.1105278,0.113069795
3.0920146,0.112101674
3.0736122,0.11490065
3.0553188,0.11511294
3.037134,0.11460587
3.0190578,0.1169769
3.0010896,0.11767727
2.9832275,0.11789469
2.9654722,0.11639519
2.9478228,0.115859546
2.930278,0.11332941
2.9128375,0.11350904
2.895501,0.11920793
2.878268,0.12017413
2.8611374,0.12292548
2.8441086,0.12315048
2.8271809,0.124401905
2.8103547,0.116613984
2.7936282,0.11757232
2.7770011,0.12036966
2.7604735,0.122143306
2.7440438,0.11837275
2.7277122,0.12041348
2.711477,0.11818651
2.6953394,0.11727651
2.6792972,0.11580898
2.663351,0.12086779
2.6474993,0.124336205
2.631742,0.12618512
2.6160786,0.12638511
2.6005085,0.13049501
2.5850313,0.12509198
2.5696461,0.12725489
2.5543516,0.12687893
2.5391486,0.12792479
2.524037,0.12753907
2.5090146,0.13293666
2.4940815,0.13081905
2.4792366,0.13218856
2.4644816,0.13504395
2.4498136,0.13288632
2.4352329,0.13338357
2.420739,0.13598327
2.4063315,0.14193115
2.3920097,0.1406544
2.377773,0.14455262
2.363621,0.14449583
2.3495533,0.14597952
2.3355696,0.14592014
2.3216686,0.14585486
2.3078513,0.14578351
2.294115,0.14855692
2.280461,0.15263288
2.2668889,0.15450838
2.253397,0.15833578
2.2399855,0.16350107
2.2266536,0.16219558
2.213401,0.16086857
2.2002275,0.1624923
2.1871324,0.16014273
2.174115,0.16110156
2.1611753,0.16038497
2.1483126,0.16337475
2.1355262,0.16673486
2.1228166,0.16533697
2.1101818,0.16770437
2.0976226,0.16732278
2.0851378,0.1683246
2.0727284,0.16582653
2.060392,0.16611405
2.0481286,0.16710865
2.0359385,0.16917998
2.0238216,0.16660231
2.0117764,0.16976705
1.9998028,0.17260036
1.9879006,0.17144051
1.9760691,0.17283472
1.9643079,0.17275977
1.9526169,0.17081693
1.9409955,0.17221405
1.9294431,0.17701137
1.9179596,0.1765557
1.9065444,0.17646936
1.8951972,0.17637569
1.8839173,0.18090321
1.8727047,0.18353847
1.8615594,0.18658909
1.8504798,0.19398935
1.8394659,0.19001532
1.8285179,0.18638411
1.8176354,0.19109812
1.8068173,0.18942703
1.7960637,0.18651532
1.7853739,0.19455123
1.7747478,0.1924405
1.7641851,0.1935927
1.753685,0.19019382
1.7432475,0.18507986
1.7328722,0.18954274
1.7225585,0.19152133
1.7123064,0.18799984
1.7021154,0.19083312
1.6919845,0.19412313
1.6819143,0.19269314
1.6719041,0.20080099
1.6619537,0.2063756
1.6520622,0.2071714
1.6422291,0.21195178
1.6324553,0.21722698
1.6227394,0.21584079
1.6130813,0.20857391
1.6034806,0.20936957
1.5939372,0.20652008
1.5844505,0.20500484
1.5750202,0.20254132
1.5656462,0.20839533
1.5563277,0.20730856
1.5470649,0.20808005
1.5378572,0.21357858
1.5287046,0.22008613
1.5196058,0.22092572
1.5105615,0.22128639
1.5015709,0.22551493
1.4926344,0.2249178
1.4837507,0.22675419
1.4749194,0.23254605
1.466141,0.24335542
1.4574152,0.24331662
1.4487412,0.24427184
1.4401187,0.2416977
1.4315474,0.24314484
1.4230273,0.24817514
1.4145577,0.25017482
1.4061385,0.25167271
1.3977697,0.24590126
1.3894506,0.24423566
1.3811809,0.24148901
1.3729603,0.24134712
1.3647891,0.24385698
