energy,intensity
97.76732,0.0032108892
92.828835,0.0033973646
88.18945,0.0035266504
83.8307,0.0037620268
79.735245,0.0039552567
75.88682,0.004261171
72.27017,0.0045246887
68.87099,0.0047691106
65.67586,0.004945806
62.672165,0.0051016803
59.848106,0.0053545563
57.19261,0.005628583
54.69525,0.00585901
52.346306,0.0063717975
50.136597,0.0068120575
48.057564,0.0071672387
46.10113,0.007565975
44.25976,0.00786433
42.52636,0.008167798
40.894283,0.008564849
39.357292,0.009010104
37.909534,0.009737569
36.545517,0.010419154
35.260098,0.010654727
34.04844,0.0110979155
32.906017,0.011505293
31.828575,0.0124883605
30.812122,0.013206924
29.85292,0.013752982
28.947456,0.014283581
28.092442,0.0150028495
27.284779,0.015633382
26.521572,0.016549045
25.800108,0.017800443
25.117828,0.018775774
24.472345,0.019627325
23.861408,0.020099401
23.282911,0.020973323
22.734882,0.022054218
22.215462,0.022864256
21.722916,0.023817556
21.255604,0.023930946
20.812004,0.024580687
20.390675,0.025373692
19.990267,0.02646355
19.609518,0.027570287
19.247244,0.028315743
18.902327,0.02940908
18.573725,0.030555353
18.260456,0.030999959
17.961601,0.031394385
17.676302,0.03264107
17.403744,0.033194013
17.143167,0.0339105
16.893862,0.034539964
16.655159,0.036387525
16.426428,0.037911676
16.207083,0.03887313
15.996571,0.039884385
15.794373,0.04085506
15.6,0.0403859
15.412999,0.041205913
15.232939,0.04197921
15.05942,0.04352448
14.892062,0.0441112
14.730514,0.046025548
14.574441,0.04681758
14.423531,0.046904378
14.277491,0.04702787
14.136047,0.047755457
13.998942,0.04801554
13.865933,0.048738156
13.73679,0.050518848
13.611302,0.051198136
13.48927,0.052092265
13.3705015,0.05315283
13.254824,0.052739542
13.142069,0.052804984
13.032082,0.05269304
12.924716,0.05324321
12.819836,0.054472357
12.717309,0.055540062
12.617017,0.05598154
12.518845,0.057117093
12.422684,0.057325244
12.328438,0.05776347
12.23601,0.05748716
12.145311,0.05791645
12.056257,0.057982616
11.968773,0.0582243
11.882783,0.058767945
11.798219,0.059989847
11.7150135,0.061222292
11.633108,0.06171582
11.552444,0.062587045
11.472969,0.06181719
11.394629,0.06122183
11.317378,0.061447103
11.241171,0.06095866
11.165965,0.061239075
11.091721,0.061911047
11.018401,0.063048474
10.945969,0.062934585
10.874393,0.06374977
10.803641,0.0644363
10.733684,0.06445007
10.664492,0.06486823
10.596042,0.06439575
10.528306,0.06398181
10.461264,0.06411399
10.394891,0.06501271
10.329167,0.065004274
10.264075,0.066478476
10.199594,0.06604382
10.135705,0.066316724
10.072394,0.065074235
10.0096445,0.06555478
9.947442,0.06494199
9.885775,0.065494105
9.824624,0.064200595
9.763982,0.06422722
9.703834,0.064176016
9.64417,0.064497694
9.584979,0.06413786
9.526253,0.06468581
9.467979,0.06608169
9.410151,0.06695111
9.3527565,0.06689579
9.295791,0.06879099
9.239244,0.06748171
9.183109,0.065836824
9.12738,0.06592034
9.07205,0.06560149
9.01711,0.06511474
8.962557,0.06607862
8.908382,0.0666436
8.854581,0.06532513
8.801149,0.065143764
8.74808,0.0647083
8.69537,0.06351273
8.643014,0.063813396
8.591007,0.06428428
8.539344,0.06322656
8.48802,0.063523255
8.437034,0.06416552
8.38638,0.064899676
8.336055,0.06537865
8.286055,0.06551007
8.236377,0.06493471
8.187016,0.06505994
8.13797,0.06411264
8.089236,0.06387006
8.04081,0.06136281
7.9926906,0.06091399
7.9448724,0.06000013
7.8973556,0.060269125
7.850135,0.060816795
7.80321,0.061089404
7.7565756,0.062112458
7.710231,0.062108826
7.664174,0.062292427
7.6184006,0.062380552
7.57291,0.06304314
7.5276995,0.06303564
7.482766,0.063219935
7.4381084,0.06428338
7.3937244,0.06427613
7.349611,0.06426645
7.3057675,0.06465213
7.2621903,0.06373927
7.218879,0.06371903
7.175831,0.06389876
7.133044,0.06428205
7.090517,0.06518002
7.0482473,0.068045296
7.0062337,0.06866077
6.9644732,0.069385484
6.9229665,0.06990646
6.881709,0.06821369
6.840701,0.06872883
6.79994,0.067430995
6.7594247,0.067082636
6.719154,0.06651135
6.679125,0.06701876
6.6393356,0.06588812
6.599786,0.06617285
6.560474,0.065904796
6.5213976,0.066745415
6.482556,0.06624856
6.443947,0.06687103
6.4055705,0.06704477
6.367422,0.066533476
6.3295035,0.066472836
6.291812,0.06733302
6.254346,0.069014415
6.217103,0.06977848
6.1800838,0.070549205
6.1432858,0.07250953
6.106708,0.0737768
6.0703483,0.07350046
6.034206,0.07297729
5.9982805,0.072929785
5.9625683,0.07226975
5.92707,0.071844384
5.891784,0.070917964
5.856708,0.07059826
5.8218417,0.071769975
5.787183,0.07081857
5.752732,0.071369
5.718485,0.07446495
5.684444,0.07593355
5.650605,0.07613108
5.616968,0.07904501
5.583532,0.077696346
5.550295,0.07672146
5.5172563,0.07560039
5.4844136,0.07592061
5.4517684,0.076108634
5.419316,0.07683259
5.387058,0.076753095
5.3549924,0.07829828
5.3231173,0.077402025
5.2914324,0.07676687
5.2599363,0.077088386
5.228627,0.07810591
5.1975055,0.07843379
5.166569,0.07805955
5.135817,0.07767801
5.105248,0.07714677
5.0748606,0.076606385
5.044654,0.07663295
5.0146275,0.07781636
4.9847803,0.07886541
4.955111,0.07933761
4.9256177,0.078632444
4.8963003,0.0780644
4.867158,0.07853181
4.8381886,0.08080436
4.809392,0.08038162
4.7807665,0.082534894
4.7523127,0.08241742
4.724026,0.08260327
4.695909,0.0821694
4.667959,0.082038715
4.640177,0.083156325
4.612559,0.08381177
4.585105,0.08241179
4.557816,0.08099201
4.530688,0.081156194
4.5037217,0.0832556
4.4769163,0.08261788
4.450271,0.085561834
4.423784,0.088373825
4.3974533,0.08890297
4.3712807,0.08793914
4.345264,0.088967375
4.3194017,0.08781773
4.293693,0.0881743
4.2681384,0.09176679
4.2427354,0.090603516
4.217483,0.093041286
4.192381,0.0948117
4.16743,0.09241508
4.142626,0.09033724
4.11797,0.09105457
4.09346,0.09071218
4.069097,0.09143389
4.0448785,0.0935982
4.0208044,0.095965885
3.9968739,0.095085986
3.9730854,0.09492372
3.949438,0.094020136
3.925932,0.09236194
3.9025662,0.090866715
3.8793387,0.09178541
3.85625,0.09271184
3.8332987,0.09364607
3.8104842,0.095732376
3.7878044,0.0959219
3.7652605,0.09495227
3.742851,0.093967594
3.7205741,0.09648332
3.6984303,0.098632835
3.6764178,0.0992234
3.6545374,0.10120936
3.632786,0.105415896
3.6111646,0.1040348
3.5896719,0.104252815
3.5683074,0.10548793
3.5470698,0.1063244
3.525958,0.10531229
3.5049734,0.10822338
3.484112,0.10887136
3.4633756,0.108683966
3.4427624,0.106801845
3.4222722,0.10956465
3.4019039,0.107443765
3.3816562,0.1050787
3.3615294,0.10505934
3.3415227,0.108080484
3.321635,0.10719621
3.3018653,0.1102589
3.2822137,0.11423999
3.2626784,0.114924
3.24326,0.11516398
3.2239568,0.11359954
3.2047691,0.11858787
3.1856952,0.11884167
3.1667347,0.118176416
3.1478868,0.1177298
3.1291518,0.11959579
3.1105278,0.11750847
3.0920146,0.117506996
3.0736122,0.11986549
3.0553188,0.12153451
3.037134,0.12034812
3.0190578,0.122272156
3.0010896,0.123488486
2.9832275,0.12593296
2.9654722,0.12423655
2.9478228,0.12917104
2.930278,0.1257287
2.9128375,0.12797831
2.895501,0.12874459
2.878268,0.13178761
2.8611374,0.13308463
2.8441086,0.13234845
2.8271809,0.13314089
2.8103547,0.12850809
2.7936282,0.130318
2.7770011,0.13319165
2.7604735,0.13504207
2.7440438,0.13108392
2.7277122,0.13346717
2.711477,0.13265833
2.6953394,0.13075659
2.6792972,0.12828489
2.663351,0.1334184
2.6474993,0.1355896
2.631742,0.13640143
2.6160786,0.13694033
2.6005085,0.13859855
2.5850313,0.1363362
2.5696461,0.1394148
2.5543516,0.13939613
2.5391486,0.13651034
2.524037,0.13905503
2.5090146,0.14220458
2.4940815,0.13635482
2.4792366,0.13951609
2.4644816,0.14153078
2.4498136,0.1423782
2.4352329,0.14591625
2.420739,0.1488912
2.4063315,0.15733218
2.3920097,0.15341355
2.377773,0.1549433
2.363621,0.15433384
2.3495533,0.1521651
2.3355696,0.15400955
2.3216686,0.15618366
2.3078513,0.15271059
2.294115,0.15552548
2.280461,0.16219237
2.2668889,0.1618812
2.253397,0.16285044
2.2399855,0.16706955
2.2266536,0.16676447
2.213401,0.16710635
2.2002275,0.16810687
2.1871324,0.16612317
2.174115,0.16745207
2.1611753,0.16879089
2.1483126,0.1711545
2.1355262,0.17388067
2.1228166,0.17389476
2.1101818,0.1756247
2.0976226,0.1739048
2.0851378,0.17529458
2.0727284,0.17599349
2.060392,0.1756365
2.0481286,0.17314018
2.0359385,0.17560454
2.0238216,0.17378347
2.0117764,0.17843601
1.9998028,0.18531829
1.9879006,0.18569675
1.9760691,0.18496993
1.9643079,0.18829703
1.9526169,0.18198141
1.9409955,0.18232228
1.9294431,0.18943983
1.9179596,0.18981633
1.9065444,0.18866596
1.8951972,0.18902871
1.8839173,0.19440345
1.8727047,0.19556744
1.8615594,0.19947079
1.8504798,0.20616274
1.8394659,0.20186658
1.8285179,0.20069079
1.8176354,0.20149258
1.8068173,0.20591645
1.7960637,0.20188966
1.7853739,0.20757559
1.7747478,0.2051334
1.7641851,0.20430207
1.753685,0.19848111
1.7432475,0.20092006
1.7328722,0.20044562
1.7225585,0.2037551
1.7123064,0.20073123
1.7021154,0.20364073
1.6919845,0.20314212
1.6819143,0.20176613
1.6719041,0.2121015
1.6619537,0.21861823
1.6520622,0.22344598
1.6422291,0.22788136
1.6324553,0.23503248
1.6227394,0.23061828
1.6130813,0.22974667
1.6034806,0.22840314
1.5939372,0.22566764
1.5844505,0.22243257
1.5750202,0.21961203
1.5656462,0.22278342
1.5563277,0.2227166
1.5470649,0.21982272
1.5378572,0.22397402
1.5287046,0.23149447
1.5196058,0.23096783
1.5105615,0.2313886
1.5015709,0.23422582
1.4926344,0.23173349
1.4837507,0.23410043
1.4749194,0.24190703
1.466141,0.25078988
1.4574152,0.2522914
1.4487412,0.2563099
1.4401187,0.25633076
1.4315474,0.26344922
1.4230273,0.26706916
1.4145577,0.2691819
1.4061385,0.26976004
1.3977697,0.26773608
1.3894506,0.2646322
1.3811809,0.258851
1.3729603,0.25563744
1.3647891,0.25770038
