energy,intensity
97.76732,0.005771424
92.828835,0.0061567444
88.18945,0.0064600324
83.8307,0.006821924
79.735245,0.0072133304
75.88682,0.007579138
72.27017,0.007903122
68.87099,0.008330117
65.67586,0.0088847475
62.672165,0.009304769
59.848106,0.009816686
57.19261,0.0101771895
54.69525,0.010688375
52.346306,0.011181878
50.136597,0.011747176
48.057564,0.012391459
46.10113,0.012980376
44.25976,0.013512199
42.52636,0.014045877
40.894283,0.014641981
39.357292,0.015343027
37.909534,0.016264424
36.545517,0.016563274
35.260098,0.016909484
34.04844,0.017479217
32.906017,0.018262718
31.828575,0.019075
30.812122,0.019999055
29.85292,0.020836376
28.947456,0.021626195
28.092442,0.022349069
27.284779,0.022757623
26.521572,0.023481011
25.800108,0.024179876
25.117828,0.024735421
24.472345,0.025283914
23.861408,0.026403304
23.282911,0.027449463
22.734882,0.028462727
22.215462,0.029013732
21.722916,0.029705038
21.255604,0.0298795
20.812004,0.030708399
20.390675,0.03116474
19.990267,0.032425113
19.609518,0.03303617
19.247244,0.03412991
18.902327,0.03475269
18.573725,0.03519147
18.260456,0.03535746
17.961601,0.036067124
17.676302,0.036176495
17.403744,0.036889188
17.143167,0.03808573
16.893862,0.038991872
16.655159,0.039812483
16.426428,0.040787123
16.207083,0.04080109
15.996571,0.041179035
15.794373,0.04163719
15.6,0.04208611
15.412999,0.042596728
15.232939,0.04343417
15.05942,0.043741617
14.892062,0.04457476
14.730514,0.04503894
14.574441,0.04547138
14.423531,0.045216627
14.277491,0.045704577
14.136047,0.04549363
13.998942,0.0457056
13.865933,0.04622264
13.73679,0.047318432
13.611302,0.04788815
13.48927,0.048348304
13.3705015,0.048804954
13.254824,0.048847124
13.142069,0.04849211
13.032082,0.04926381
12.924716,0.04860481
12.819836,0.049229182
12.717309,0.04939751
12.617017,0.050020546
12.518845,0.049803324
12.422684,0.05115401
12.328438,0.05163347
12.23601,0.051399935
12.145311,0.051305126
12.056257,0.05099095
11.968773,0.05081724
11.882783,0.05130729
11.798219,0.052229356
11.7150135,0.052383214
11.633108,0.05312682
11.552444,0.05308891
11.472969,0.052981637
11.394629,0.052548744
11.317378,0.053388983
11.241171,0.053524673
11.165965,0.05300661
11.091721,0.051887352
11.018401,0.05206775
10.945969,0.05221314
10.874393,0.05245657
10.803641,0.052463792
10.733684,0.053245775
10.664492,0.054579258
10.596042,0.055789076
10.528306,0.05666566
10.461264,0.057549767
10.394891,0.05714827
10.329167,0.056140054
10.264075,0.055965103
10.199594,0.055606462
10.135705,0.05581359
10.072394,0.056741558
10.0096445,0.057133574
9.947442,0.057016004
9.885775,0.05784945
9.824624,0.05769177
9.763982,0.05715701
9.703834,0.057848275
9.64417,0.058808934
9.584979,0.058034908
9.526253,0.058507096
9.467979,0.059404444
9.410151,0.05988533
9.3527565,0.060058583
9.295791,0.061012924
9.239244,0.06040321
9.183109,0.061009835
9.12738,0.061103694
9.07205,0.060835563
9.01711,0.06003772
8.962557,0.060484223
8.908382,0.06024026
8.854581,0.060811467
8.801149,0.061428346
8.74808,0.062299382
8.69537,0.06292774
8.643014,0.062888555
8.591007,0.062465716
8.539344,0.061950117
8.48802,0.062667154
8.437034,0.06274441
8.38638,0.06299341
8.336055,0.06315578
8.286055,0.06358073
8.236377,0.06321429
8.187016,0.06359543
8.13797,0.06353222
8.089236,0.06387006
8.04081,0.06375767
7.9926906,0.0645961
7.9448724,0.06557941
7.8973556,0.06721617
7.850135,0.06734279
7.80321,0.06830651
7.7565756,0.0688577
7.710231,0.06847049
7.664174,0.06878715
7.6184006,0.06824662
7.57291,0.067744985
7.5276995,0.06810359
7.482766,0.06904666
7.4381084,0.06892389
7.3937244,0.06968162
7.349611,0.07044591
7.3057675,0.071465455
7.2621903,0.070793614
7.218879,0.07116803
7.175831,0.07159497
7.133044,0.07197349
7.090517,0.071687765
7.0482473,0.07299404
7.0062337,0.0740022
6.9644732,0.07496762
6.9229665,0.07562702
6.881709,0.076977976
6.840701,0.07828925
6.79994,0.07865168
6.7594247,0.07906936
6.719154,0.07916473
6.679125,0.07844242
6.6393356,0.07880307
6.599786,0.07784395
6.560474,0.07831041
6.5213976,0.07872392
6.482556,0.0783549
6.443947,0.078091376
6.4055705,0.08071464
6.367422,0.08273888
6.3295035,0.08116804
6.291812,0.08379091
6.254346,0.082259595
6.217103,0.082051076
6.1800838,0.082307406
6.1432858,0.083510146
6.106708,0.083831854
6.0703483,0.085171945
6.034206,0.08568208
5.9982805,0.087164424
5.9625683,0.08707713
5.92707,0.08686305
5.891784,0.086828254
5.856708,0.08778254
5.8218417,0.088370666
5.787183,0.08902547
5.752732,0.08924281
5.718485,0.09003143
5.684444,0.08986748
5.650605,0.08976266
5.616968,0.09139985
5.583532,0.09298835
5.550295,0.09289057
5.5172563,0.0930517
5.4844136,0.09374141
5.4517684,0.09383623
5.419316,0.095671974
5.387058,0.095435515
5.3549924,0.09709258
5.3231173,0.09699141
5.2914324,0.09860216
5.2599363,0.0974657
5.228627,0.097632386
5.1975055,0.09807718
5.166569,0.098031536
5.135817,0.09755735
5.105248,0.09757216
5.0748606,0.0982996
5.044654,0.10054473
5.0146275,0.1009294
4.9847803,0.103210166
4.955111,0.10580792
4.9256177,0.10629394
4.8963003,0.10507526
4.867158,0.105853714
4.8381886,0.10423459
4.809392,0.10440544
4.7807665,0.10738655
4.7523127,0.1065769
4.724026,0.10798416
4.695909,0.11033292
4.667959,0.10974817
4.640177,0.108447745
4.612559,0.10972724
4.585105,0.11030501
4.557816,0.110885724
4.530688,0.11114869
4.5037217,0.11189487
4.4769163,0.112564825
4.450271,0.11242236
4.423784,0.11186353
4.3974533,0.11187234
4.3712807,0.110879794
4.345264,0.11112557
4.3194017,0.11254799
4.293693,0.11381425
4.2681384,0.11577258
4.2427354,0.11663703
4.217483,0.11552626
4.192381,0.113618016
4.16743,0.11508292
4.142626,0.11778921
4.11797,0.118494466
4.09346,0.1204466
4.069097,0.12206067
4.0448785,0.120456025
4.0208044,0.11991217
3.9968739,0.12144824
3.9730854,0.122815564
3.949438,0.12391891
3.925932,0.12725218
3.9025662,0.12820026
3.8793387,0.12737569
3.85625,0.12719612
3.8332987,0.12871596
3.8104842,0.12824705
3.7878044,0.12498622
3.7652605,0.12698902
3.742851,0.12842885
3.7205741,0.12939313
3.6984303,0.12987313
3.6764178,0.13351674
3.6545374,0.13441555
3.632786,0.13442025
3.6111646,0.13522509
3.5896719,0.13826148
3.5683074,0.13888563
3.5470698,0.13838561
3.525958,0.13777155
3.5049734,0.13870005
3.484112,0.13775773
3.4633756,0.13868745
3.4427624,0.13941225
3.4222722,0.14045931
3.4019039,0.14033905
3.3816562,0.14150168
3.3615294,0.14191654
3.3415227,0.1429837
3.321635,0.14296475
3.3018653,0.14415084
3.2822137,0.14279994
3.2626784,0.14365497
3.24326,0.14653158
3.2239568,0.1489867
3.2047691,0.15055893
3.1856952,0.15157446
3.1667347,0.15041676
3.1478868,0.14820102
3.1291518,0.1488561
3.1105278,0.15196674
3.0920146,0.1528766
3.0736122,0.15213697
3.0553188,0.15423705
3.037134,0.1542035
3.0190578,0.15308088
3.0010896,0.15351315
2.9832275,0.15528484
2.9654722,0.15596955
2.9478228,0.15801266
2.930278,0.15722284
2.9128375,0.1591621
2.895501,0.15936218
2.878268,0.16119996
2.8611374,0.1622921
2.8441086,0.16275284
2.8271809,0.16244216
2.8103547,0.16729324
2.7936282,0.16543362
2.7770011,0.16472325
2.7604735,0.16821027
2.7440438,0.16868779
2.7277122,0.16889858
2.711477,0.17071387
2.6953394,0.17294917
2.6792972,0.16978087
2.663351,0.17079736
2.6474993,0.1707221
2.631742,0.17202042
2.6160786,0.17402256
2.6005085,0.17660138
2.5850313,0.17709652
2.5696461,0.17999497
2.5543516,0.18007703
2.5391486,0.18001047
2.524037,0.18310352
2.5090146,0.18492386
2.4940815,0.18471998
2.4792366,0.18670534
2.4644816,0.18738088
2.4498136,0.18494335
2.4352329,0.18813945
2.420739,0.18866554
2.4063315,0.19145603
2.3920097,0.19229855
2.377773,0.19360273
2.363621,0.19414704
2.3495533,0.19376308
2.3355696,0.19398981
2.3216686,0.19436884
2.3078513,0.19631973
2.294115,0.19638655
2.280461,0.19533187
2.2668889,0.19537939
2.253397,0.19638793
2.2399855,0.2012945
2.2266536,0.20135748
2.213401,0.20535366
2.2002275,0.20542726
2.1871324,0.20532826
2.174115,0.20522067
2.1611753,0.20695376
2.1483126,0.2078546
2.1355262,0.20824845
2.1228166,0.20932409
2.1101818,0.21229926
2.0976226,0.21426323
2.0851378,0.21659163
2.0727284,0.22051772
2.060392,0.22042735
2.0481286,0.21926358
2.0359385,0.22307484
2.0238216,0.22512856
2.0117764,0.22304504
1.9998028,0.2252889
1.9879006,0.22718611
1.9760691,0.2263399
1.9643079,0.22362585
1.9526169,0.22496477
1.9409955,0.22575016
1.9294431,0.22898492
1.9179596,0.22656715
1.9065444,0.22925773
1.8951972,0.227563
1.8839173,0.22931123
1.8727047,0.23495254
1.8615594,0.23772542
1.8504798,0.24268298
1.8394659,0.24709888
1.8285179,0.24957189
1.8176354,0.24686837
1.8068173,0.24693885
1.7960637,0.24356227
1.7853739,0.24298552
1.7747478,0.24648759
1.7641851,0.2448742
1.753685,0.24592595
1.7432475,0.2461479
1.7328722,0.24321857
1.7225585,0.24404207
1.7123064,0.2472007
1.7021154,0.24868076
1.6919845,0.25016978
1.6819143,0.25123554
1.6719041,0.25382635
1.6619537,0.25840673
1.6520622,0.26435244
1.6422291,0.268369
1.6324553,0.27153373
1.6227394,0.2760702
1.6130813,0.27502027
1.6034806,0.27666694
1.5939372,0.27877933
1.5844505,0.2799898
1.5750202,0.28374243
1.5656462,0.28613746
1.5563277,0.28551617
1.5470649,0.28675592
1.5378572,0.28705528
1.5287046,0.28782317
1.5196058,0.2885902
1.5105615,0.28863442
1.5015709,0.2927823
1.4926344,0.29672593
1.4837507,0.2958089
1.4749194,0.295363
1.466141,0.29911405
1.4574152,0.29841188
1.4487412,0.298443
1.4401187,0.2999776
1.4315474,0.30126607
1.4230273,0.3010273
1.4145577,0.30128855
1.4061385,0.30593476
1.3977697,0.30932614
1.3894506,0.30934772
1.3811809,0.3104107
1.3729603,0.30829978
1.3647891,0.3074834
