energy,intensity
97.76732,0.006418063
92.828835,0.006876922
88.18945,0.0071851374
83.8307,0.0075760633
79.735245,0.007992535
75.88682,0.008488826
72.27017,0.008747731
68.87099,0.009232238
65.67586,0.009941401
62.672165,0.010365687
59.848106,0.010927665
57.19261,0.011365163
54.69525,0.012003665
52.346306,0.012597835
50.136597,0.0132690165
48.057564,0.013873294
46.10113,0.014603908
44.25976,0.015236112
42.52636,0.015874235
40.894283,0.016649924
39.357292,0.01730014
37.909534,0.017932076
36.545517,0.018492008
35.260098,0.018815791
34.04844,0.019261284
32.906017,0.020007282
31.828575,0.020958526
30.812122,0.021626338
29.85292,0.022406409
28.947456,0.023220234
28.092442,0.023952823
27.284779,0.024275687
26.521572,0.024905767
25.800108,0.025461394
25.117828,0.026153008
24.472345,0.026545882
23.861408,0.027956441
23.282911,0.028963163
22.734882,0.029773194
22.215462,0.030485675
21.722916,0.031076554
21.255604,0.03107604
20.812004,0.03194791
20.390675,0.0323764
19.990267,0.033370245
19.609518,0.034166403
19.247244,0.03535693
18.902327,0.036002096
18.573725,0.03642386
18.260456,0.036531404
17.961601,0.03732129
17.676302,0.037286457
17.403744,0.038120918
17.143167,0.039378565
16.893862,0.039873652
16.655159,0.040772356
16.426428,0.04184882
16.207083,0.04160815
15.996571,0.04161059
15.794373,0.0422583
15.6,0.04259851
15.412999,0.04335107
15.232939,0.044412088
15.05942,0.044899695
14.892062,0.046014227
14.730514,0.046247542
14.574441,0.046518426
14.423531,0.046123475
14.277491,0.046417125
14.136047,0.046496026
13.998942,0.046873543
13.865933,0.047375582
13.73679,0.04829707
13.611302,0.048688952
13.48927,0.04902168
13.3705015,0.04921257
13.254824,0.04851819
13.142069,0.047856245
13.032082,0.048288018
12.924716,0.04781768
12.819836,0.04809552
12.717309,0.048197564
12.617017,0.04858069
12.518845,0.048410222
12.422684,0.0488142
12.328438,0.04892212
12.23601,0.048757188
12.145311,0.04819391
12.056257,0.047947165
11.968773,0.047690496
11.882783,0.047790997
11.798219,0.04834911
11.7150135,0.04832033
11.633108,0.048285753
11.552444,0.04833985
11.472969,0.048421353
11.394629,0.048116527
11.317378,0.048348658
11.241171,0.048385523
11.165965,0.04809317
11.091721,0.04697378
11.018401,0.046989575
10.945969,0.04700178
10.874393,0.0471775
10.803641,0.04701564
10.733684,0.04759286
10.664492,0.048855595
10.596042,0.049754117
10.528306,0.050212257
10.461264,0.050950825
10.394891,0.050612044
10.329167,0.05005469
10.264075,0.05019514
10.199594,0.05012063
10.135705,0.050257318
10.072394,0.050825715
10.0096445,0.050926555
9.947442,0.050989322
9.885775,0.05152791
9.824624,0.051367868
9.763982,0.05142643
9.703834,0.051894955
9.64417,0.05244205
9.584979,0.051969863
9.526253,0.0526335
9.467979,0.053686578
9.410151,0.054209553
9.3527565,0.053609867
9.295791,0.053664796
9.239244,0.053953916
9.183109,0.054046325
9.12738,0.05469478
9.07205,0.054627866
9.01711,0.05435629
8.962557,0.054403372
8.908382,0.05391851
8.854581,0.054492325
8.801149,0.05507084
8.74808,0.05565412
8.69537,0.057495736
8.643014,0.057507716
8.591007,0.056291036
8.539344,0.055567883
8.48802,0.056802817
8.437034,0.0566293
8.38638,0.057101317
8.336055,0.057881903
8.286055,0.058231167
8.236377,0.056685526
8.187016,0.05684977
8.13797,0.056433402
8.089236,0.057042878
8.04081,0.05756717
7.9926906,0.058550168
7.9448724,0.059771467
7.8973556,0.060913224
7.850135,0.060770504
7.80321,0.061880954
7.7565756,0.06220614
7.710231,0.061354846
7.664174,0.06172355
7.6184006,0.061665177
7.57291,0.06117199
7.5276995,0.06187725
7.482766,0.06321994
7.4381084,0.062036384
7.3937244,0.06294934
7.349611,0.0635249
7.3057675,0.06440345
7.2621903,0.06478991
7.218879,0.06527929
7.175831,0.06546838
7.133044,0.06586109
7.090517,0.06548747
7.0482473,0.0661895
7.0062337,0.06777917
6.9644732,0.06834209
6.9229665,0.06838445
6.881709,0.07021996
6.840701,0.070800245
6.79994,0.07069032
6.7594247,0.07030776
6.719154,0.07056693
6.679125,0.07093544
6.6393356,0.07136056
6.599786,0.07101746
6.560474,0.07138763
6.5213976,0.07192682
6.482556,0.07162916
6.443947,0.07155087
6.4055705,0.0734543
6.367422,0.07560621
6.3295035,0.075255506
6.291812,0.07686127
6.254346,0.07534654
6.217103,0.07585634
6.1800838,0.07607556
6.1432858,0.07647212
6.106708,0.076751664
6.0703483,0.078228906
6.034206,0.0779147
5.9982805,0.07886594
5.9625683,0.07939923
5.92707,0.07901656
5.891784,0.07924312
5.856708,0.080896415
5.8218417,0.081755355
5.787183,0.08098933
5.752732,0.08147435
5.718485,0.08202582
5.684444,0.08117476
5.650605,0.081275076
5.616968,0.083831705
5.583532,0.08465908
5.550295,0.08490421
5.5172563,0.08422726
5.4844136,0.08473165
5.4517684,0.08337295
5.419316,0.085146055
5.387058,0.08484657
5.3549924,0.08766152
5.3231173,0.08716259
5.2914324,0.08816518
5.2599363,0.08724251
5.228627,0.087625936
5.1975055,0.08717194
5.166569,0.08741262
5.135817,0.087511554
5.105248,0.08675452
5.0748606,0.08756037
5.044654,0.08923704
5.0146275,0.08904682
4.9847803,0.092276886
4.955111,0.09532247
4.9256177,0.09537689
4.8963003,0.09446384
4.867158,0.095552
4.8381886,0.09409651
4.809392,0.094433285
4.7807665,0.09689869
4.7523127,0.09694369
4.724026,0.097985625
4.695909,0.10066138
4.667959,0.09962955
4.640177,0.09850344
4.612559,0.09862061
4.585105,0.09802248
4.557816,0.09924709
4.530688,0.10024232
4.5037217,0.101084545
4.4769163,0.101202846
4.450271,0.10091071
4.423784,0.099461615
4.3974533,0.09980928
4.3712807,0.098827645
4.345264,0.10017189
4.3194017,0.102285765
4.293693,0.10272898
4.2681384,0.1041102
4.2427354,0.1037059
4.217483,0.103896104
4.192381,0.10183157
4.16743,0.10340027
4.142626,0.10647515
4.11797,0.10746558
4.09346,0.10864159
4.069097,0.11063143
4.0448785,0.11039557
4.0208044,0.1099722
3.9968739,0.11163058
3.9730854,0.113670684
3.949438,0.1140753
3.925932,0.11660926
3.9025662,0.11879704
3.8793387,0.11782248
3.85625,0.11730307
3.8332987,0.1186689
3.8104842,0.11833055
3.7878044,0.11673693
3.7652605,0.11936581
3.742851,0.1218278
3.7205741,0.12206898
3.6984303,0.12250511
3.6764178,0.12472105
3.6545374,0.12477183
3.632786,0.126119
3.6111646,0.12717597
3.5896719,0.13077147
3.5683074,0.13104533
3.5470698,0.13131778
3.525958,0.12911573
3.5049734,0.13019975
3.484112,0.1299365
3.4633756,0.13102922
3.4427624,0.1302307
3.4222722,0.13101043
3.4019039,0.13126081
3.3816562,0.13118719
3.3615294,0.13283736
3.3415227,0.13461128
3.321635,0.1345422
3.3018653,0.1352377
3.2822137,0.13460834
3.2626784,0.13619384
3.24326,0.13857765
3.2239568,0.13974547
3.2047691,0.14182925
3.1856952,0.14210819
3.1667347,0.14272957
3.1478868,0.13862105
3.1291518,0.14037988
3.1105278,0.14297256
3.0920146,0.14277099
3.0736122,0.14161624
3.0553188,0.14317764
3.037134,0.14283863
3.0190578,0.14224967
3.0010896,0.14285924
2.9832275,0.14663759
2.9654722,0.14665791
2.9478228,0.15012436
2.930278,0.14841935
2.9128375,0.15005644
2.895501,0.1480688
2.878268,0.15047012
2.8611374,0.1506091
2.8441086,0.15010563
2.8271809,0.15138993
2.8103547,0.15656269
2.7936282,0.15346828
2.7770011,0.1524246
2.7604735,0.1571542
2.7440438,0.15465252
2.7277122,0.1575765
2.711477,0.15932399
2.6953394,0.16364792
2.6792972,0.16150877
2.663351,0.16315788
2.6474993,0.16097835
2.631742,0.16097578
2.6160786,0.16221735
2.6005085,0.16584322
2.5850313,0.16500899
2.5696461,0.16726948
2.5543516,0.17097361
2.5391486,0.16927853
2.524037,0.17245126
2.5090146,0.17522153
2.4940815,0.1746682
2.4792366,0.17498131
2.4644816,0.17794548
2.4498136,0.17456159
2.4352329,0.17709874
2.420739,0.17950992
2.4063315,0.18164164
2.3920097,0.18394436
2.377773,0.18550414
2.363621,0.18569252
2.3495533,0.18433008
2.3355696,0.18605599
2.3216686,0.18701348
2.3078513,0.18781829
2.294115,0.18482511
2.280461,0.18417913
2.2668889,0.18399963
2.253397,0.18751986
2.2399855,0.1894536
2.2266536,0.1909143
2.213401,0.19616117
2.2002275,0.19518894
2.1871324,0.19469634
2.174115,0.19285399
2.1611753,0.19568981
2.1483126,0.19601588
2.1355262,0.19514787
2.1228166,0.19802782
2.1101818,0.20248494
2.0976226,0.2038705
2.0851378,0.20596239
2.0727284,0.21070138
2.060392,0.2101995
2.0481286,0.21003887
2.0359385,0.21290264
2.0238216,0.21184345
2.0117764,0.20913856
1.9998028,0.21075413
1.9879006,0.20982273
1.9760691,0.21107897
1.9643079,0.20882848
1.9526169,0.20672944
1.9409955,0.20777997
1.9294431,0.2112838
1.9179596,0.21027556
1.9065444,0.21382141
1.8951972,0.21260938
1.8839173,0.2127252
1.8727047,0.21865523
1.8615594,0.22074506
1.8504798,0.2244229
1.8394659,0.22813687
1.8285179,0.23029764
1.8176354,0.22687903
1.8068173,0.22783527
1.7960637,0.22758105
1.7853739,0.22670507
1.7747478,0.22908609
1.7641851,0.2263387
1.753685,0.22562206
1.7432475,0.22342977
1.7328722,0.22539651
1.7225585,0.22273846
1.7123064,0.22874022
1.7021154,0.22712131
1.6919845,0.22805174
1.6819143,0.22768898
1.6719041,0.22796564
1.6619537,0.23392148
1.6520622,0.24323943
1.6422291,0.24912074
1.6324553,0.25306058
1.6227394,0.25591913
1.6130813,0.25722617
1.6034806,0.2585397
1.5939372,0.26099947
1.5844505,0.2641673
1.5750202,0.26851723
1.5656462,0.26710805
1.5563277,0.26824045
1.5470649,0.2651494
1.5378572,0.26555568
1.5287046,0.26476884
1.5196058,0.26635414
1.5105615,0.2653031
1.5015709,0.26931128
1.4926344,0.2733579
1.4837507,0.2723009
1.4749194,0.27220696
1.466141,0.2738368
1.4574152,0.2757256
1.4487412,0.2726114
1.4401187,0.27222532
1.4315474,0.2743628
1.4230273,0.2757502
1.4145577,0.27611694
1.4061385,0.27725336
1.3977697,0.2817727
1.3894506,0.28450578
1.3811809,0.28305247
1.3729603,0.28342408
1.3647891,0.28432232
