energy,intensity
97.76732,0.0050021494
92.828835,0.0053074034
88.18945,0.0055742497
83.8307,0.0059247585
79.735245,0.0062746406
75.88682,0.0066646626
72.27017,0.006978076
68.87099,0.0073963418
65.67586,0.007955333
62.672165,0.008307623
59.848106,0.008723919
57.19261,0.009065448
54.69525,0.009552443
52.346306,0.010036621
50.136597,0.0105152065
48.057564,0.011121317
46.10113,0.011664212
44.25976,0.012165905
42.52636,0.0125934435
40.894283,0.013176006
39.357292,0.013958277
37.909534,0.0145776
36.545517,0.014962619
35.260098,0.015271085
34.04844,0.015718488
32.906017,0.016396698
31.828575,0.017191473
30.812122,0.017876511
29.85292,0.018621296
28.947456,0.019354379
28.092442,0.020021044
27.284779,0.020533793
26.521572,0.021289084
25.800108,0.021912571
25.117828,0.02249332
24.472345,0.02307176
23.861408,0.024241097
23.282911,0.024983848
22.734882,0.025809824
22.215462,0.026445994
21.722916,0.026995456
21.255604,0.02712744
20.812004,0.027897686
20.390675,0.02818903
19.990267,0.029044468
19.609518,0.029349014
19.247244,0.030297846
18.902327,0.030677706
18.573725,0.031181326
18.260456,0.031059647
17.961601,0.031637125
17.676302,0.031510554
17.403744,0.03215017
17.143167,0.03297796
16.893862,0.033701193
16.655159,0.03438054
16.426428,0.034947746
16.207083,0.035039622
15.996571,0.035137326
15.794373,0.035587154
15.6,0.036030557
15.412999,0.036514852
15.232939,0.037161145
15.05942,0.037516944
14.892062,0.0385973
14.730514,0.03872461
14.574441,0.03926394
14.423531,0.03901981
14.277491,0.03964796
14.136047,0.039453514
13.998942,0.039710145
13.865933,0.04027449
13.73679,0.041129213
13.611302,0.041588478
13.48927,0.042341806
13.3705015,0.043016843
13.254824,0.042679556
13.142069,0.04218869
13.032082,0.042823553
12.924716,0.04258894
12.819836,0.042909034
12.717309,0.043026406
12.617017,0.043973155
12.518845,0.044056788
12.422684,0.044836532
12.328438,0.045444526
12.23601,0.04513454
12.145311,0.044544213
12.056257,0.04439106
11.968773,0.04419947
11.882783,0.044427585
11.798219,0.045023184
11.7150135,0.044877745
11.633108,0.04510002
11.552444,0.044911705
11.472969,0.044652782
11.394629,0.04435394
11.317378,0.044656698
11.241171,0.044345327
11.165965,0.04412337
11.091721,0.043796334
11.018401,0.04379099
10.945969,0.04378202
10.874393,0.04390314
10.803641,0.044056132
10.733684,0.044546373
10.664492,0.045244224
10.596042,0.04605085
10.528306,0.04717537
10.461264,0.04779028
10.394891,0.04764103
10.329167,0.046818558
10.264075,0.047115464
10.199594,0.046415903
10.135705,0.04670848
10.072394,0.047471005
10.0096445,0.04744191
9.947442,0.046971545
9.885775,0.047705587
9.824624,0.04748477
9.763982,0.046737768
9.703834,0.047401883
9.64417,0.04822257
9.584979,0.047307353
9.526253,0.047293868
9.467979,0.048582695
9.410151,0.04965347
9.3527565,0.04918122
9.295791,0.049638953
9.239244,0.049195584
9.183109,0.04902152
9.12738,0.049241222
9.07205,0.048940793
9.01711,0.04907781
8.962557,0.049417082
8.908382,0.048942663
8.854581,0.04866558
8.801149,0.049456418
8.74808,0.050337903
8.69537,0.051478736
8.643014,0.051832616
8.591007,0.051385127
8.539344,0.05058976
8.48802,0.051024072
8.437034,0.050987907
8.38638,0.051295877
8.336055,0.05204141
8.286055,0.05235544
8.236377,0.05240654
8.187016,0.053432573
8.13797,0.05295096
8.089236,0.053764038
8.04081,0.05472045
7.9926906,0.05582267
7.9448724,0.05675317
7.8973556,0.05819881
7.850135,0.05868774
7.80321,0.05969253
7.7565756,0.059723515
7.710231,0.05857455
7.664174,0.058926553
7.6184006,0.058946766
7.57291,0.058485232
7.5276995,0.05893301
7.482766,0.059529673
7.4381084,0.05930092
7.3937244,0.06005003
7.349611,0.060361028
7.3057675,0.061220586
7.2621903,0.060937542
7.218879,0.06140381
7.175831,0.061569642
7.133044,0.061531473
7.090517,0.061388094
7.0482473,0.062426396
7.0062337,0.06337119
6.9644732,0.063803345
6.9229665,0.06476319
6.881709,0.06573222
6.840701,0.06628561
6.79994,0.06673637
6.7594247,0.06719014
6.719154,0.067430615
6.679125,0.06723636
6.6393356,0.06720151
6.599786,0.06749411
6.560474,0.06784318
6.5213976,0.06875111
6.482556,0.06809814
6.443947,0.06828062
6.4055705,0.069370344
6.367422,0.07075601
6.3295035,0.070433654
6.291812,0.07189503
6.254346,0.071744785
6.217103,0.07205768
6.1800838,0.07219536
6.1432858,0.0734558
6.106708,0.07341981
6.0703483,0.07362016
6.034206,0.07424176
5.9982805,0.07511042
5.9625683,0.07537748
5.92707,0.07546111
5.891784,0.07523471
5.856708,0.07562326
5.8218417,0.076887466
5.787183,0.07741071
5.752732,0.07793747
5.718485,0.078785434
5.684444,0.0787459
5.650605,0.07921748
5.616968,0.08053277
5.583532,0.081470534
5.550295,0.08110741
5.5172563,0.08100041
5.4844136,0.08148547
5.4517684,0.08097372
5.419316,0.08212907
5.387058,0.08241852
5.3549924,0.083386995
5.3231173,0.083681546
5.2914324,0.08493794
5.2599363,0.08510115
5.228627,0.084776886
5.1975055,0.0852146
5.166569,0.08586548
5.135817,0.08623815
5.105248,0.08618517
5.0748606,0.08655804
5.044654,0.08808466
5.0146275,0.08767019
4.9847803,0.0890698
4.955111,0.09077631
4.9256177,0.09131985
4.8963003,0.09097618
4.867158,0.091968805
4.8381886,0.09056695
4.809392,0.09171362
4.7807665,0.094238736
4.7523127,0.094726525
4.724026,0.09598593
4.695909,0.09841759
4.667959,0.09791718
4.640177,0.0968591
4.612559,0.0972815
4.585105,0.096675366
4.557816,0.09765278
4.530688,0.09807709
4.5037217,0.10019714
4.4769163,0.100228965
4.450271,0.100257576
4.423784,0.09864029
4.3974533,0.09782633
4.3712807,0.09766398
4.345264,0.09866681
4.3194017,0.100351095
4.293693,0.10112119
4.2681384,0.10291842
4.2427354,0.10319209
4.217483,0.102776155
4.192381,0.09966494
4.16743,0.10296434
4.142626,0.104457915
4.11797,0.1057892
4.09346,0.10731021
4.069097,0.10839917
4.0448785,0.10761098
4.0208044,0.1069902
3.9968739,0.10963069
3.9730854,0.11037854
3.949438,0.110671446
3.925932,0.113185026
3.9025662,0.11376959
3.8793387,0.11295223
3.85625,0.11221524
3.8332987,0.11392973
3.8104842,0.11251414
3.7878044,0.11242046
3.7652605,0.114251494
3.742851,0.1159063
3.7205741,0.11630732
3.6984303,0.11592306
3.6764178,0.11760541
3.6545374,0.11771302
3.632786,0.11901794
3.6111646,0.119629934
3.5896719,0.124091186
3.5683074,0.124325074
3.5470698,0.12424998
3.525958,0.12386042
3.5049734,0.1237727
3.484112,0.12263671
3.4633756,0.123685695
3.4427624,0.12453179
3.4222722,0.12474656
3.4019039,0.124425426
3.3816562,0.12506297
3.3615294,0.12505518
3.3415227,0.12656505
3.321635,0.12710406
3.3018653,0.12962571
3.2822137,0.13029113
3.2626784,0.13107125
3.24326,0.13275224
3.2239568,0.1330963
3.2047691,0.13309956
3.1856952,0.13241382
3.1667347,0.13320662
3.1478868,0.13019527
3.1291518,0.13260037
3.1105278,0.13526322
3.0920146,0.13771822
3.0736122,0.13617854
3.0553188,0.13687497
3.037134,0.1367375
3.0190578,0.13587132
3.0010896,0.1345056
2.9832275,0.13677248
2.9654722,0.13979676
2.9478228,0.14063375
2.930278,0.14073184
2.9128375,0.1416992
2.895501,0.14016345
2.878268,0.14112887
2.8611374,0.14171985
2.8441086,0.14180192
2.8271809,0.14175135
2.8103547,0.14557357
2.7936282,0.14371397
2.7770011,0.14392024
2.7604735,0.14570327
2.7440438,0.14538398
2.7277122,0.14625444
2.711477,0.14887212
2.6953394,0.15192026
2.6792972,0.14876166
2.663351,0.15060726
2.6474993,0.15041111
2.631742,0.14841248
2.6160786,0.15152323
2.6005085,0.15550421
2.5850313,0.15432698
2.5696461,0.15496817
2.5543516,0.157034
2.5391486,0.15582784
2.524037,0.1576245
2.5090146,0.16131964
2.4940815,0.16053739
2.4792366,0.16091247
2.4644816,0.16217071
2.4498136,0.15958223
2.4352329,0.16247728
2.420739,0.16390039
2.4063315,0.16759951
2.3920097,0.17027387
2.377773,0.16900128
2.363621,0.16909087
2.3495533,0.16793828
2.3355696,0.16692147
2.3216686,0.16713843
2.3078513,0.16892627
2.294115,0.16787884
2.280461,0.168884
2.2668889,0.16989514
2.253397,0.17058986
2.2399855,0.1743687
2.2266536,0.17410733
2.213401,0.17810449
2.2002275,0.17718926
2.1871324,0.17376482
2.174115,0.17447099
2.1611753,0.17652433
2.1483126,0.17555174
2.1355262,0.17728339
2.1228166,0.18005638
2.1101818,0.18233976
2.0976226,0.18412432
2.0851378,0.18452978
2.0727284,0.18984158
2.060392,0.18727507
2.0481286,0.18431625
2.0359385,0.18631212
2.0238216,0.18850477
2.0117764,0.18836918
1.9998028,0.19022375
1.9879006,0.19099715
1.9760691,0.19158915
1.9643079,0.18829703
1.9526169,0.1866333
1.9409955,0.18849951
1.9294431,0.18981645
1.9179596,0.18943742
1.9065444,0.19209623
1.8951972,0.19305468
1.8839173,0.193632
1.8727047,0.1965375
1.8615594,0.19888526
1.8504798,0.20203948
1.8394659,0.20502694
1.8285179,0.2074467
1.8176354,0.20589021
1.8068173,0.20692186
1.7960637,0.20411491
1.7853739,0.20269147
1.7747478,0.20410974
1.7641851,0.20244853
1.753685,0.20324631
1.7432475,0.20467165
1.7328722,0.2058971
1.7225585,0.20691895
1.7123064,0.20985536
1.7021154,0.20983107
1.6919845,0.20958431
1.6819143,0.21191926
1.6719041,0.20905903
1.6619537,0.21380863
1.6520622,0.21772787
1.6422291,0.22301397
1.6324553,0.22479431
1.6227394,0.2303944
1.6130813,0.23042238
1.6034806,0.23180203
1.5939372,0.23524141
1.5844505,0.23619127
1.5750202,0.23968157
1.5656462,0.2392601
1.5563277,0.24069269
1.5470649,0.24048981
1.5378572,0.23956712
1.5287046,0.23933773
1.5196058,0.2402926
1.5105615,0.23956653
1.5015709,0.24245277
1.4926344,0.24293068
1.4837507,0.24193645
1.4749194,0.2431387
1.466141,0.2443467
1.4574152,0.24655752
1.4487412,0.2460274
1.4401187,0.24724814
1.4315474,0.24822092
1.4230273,0.24945179
1.4145577,0.2506885
1.4061385,0.2511559
1.3977697,0.25473914
1.3894506,0.2554799
1.3811809,0.25437897
1.3729603,0.2532557
1.3647891,0.2537071
