energy,intensity
97.76732,0.0059349416
92.828835,0.00630939
88.18945,0.006595989
83.8307,0.006990955
79.735245,0.0074366117
75.88682,0.00790471
72.27017,0.008229906
68.87099,0.008641375
65.67586,0.009211147
62.672165,0.009606232
59.848106,0.010108089
57.19261,0.010475771
54.69525,0.0110470895
52.346306,0.011598336
50.136597,0.012239961
48.057564,0.013041651
46.10113,0.013642399
44.25976,0.014152509
42.52636,0.014746462
40.894283,0.015370527
39.357292,0.016210806
37.909534,0.016868228
36.545517,0.017358627
35.260098,0.017692616
34.04844,0.018194178
32.906017,0.019035626
31.828575,0.020125208
30.812122,0.020989576
29.85292,0.02183438
28.947456,0.022918997
28.092442,0.023642423
27.284779,0.02424905
26.521572,0.025111258
25.800108,0.025982449
25.117828,0.026644822
24.472345,0.027377298
23.861408,0.028641647
23.282911,0.029587364
22.734882,0.030092817
22.215462,0.030567449
21.722916,0.030992925
21.255604,0.030973483
20.812004,0.031441625
20.390675,0.03157457
19.990267,0.03275227
19.609518,0.033406734
19.247244,0.03426205
18.902327,0.03482958
18.573725,0.035230596
18.260456,0.03527787
17.961601,0.0356221
17.676302,0.035374857
17.403744,0.035845358
17.143167,0.03662334
16.893862,0.037077773
16.655159,0.037565537
16.426428,0.038331933
16.207083,0.037886728
15.996571,0.03799919
15.794373,0.038117584
15.6,0.038708977
15.412999,0.03927291
15.232939,0.04028573
15.05942,0.04033976
14.892062,0.041159067
14.730514,0.041092478
14.574441,0.04133309
14.423531,0.04113579
14.277491,0.04145477
14.136047,0.0413041
13.998942,0.041189544
13.865933,0.041532245
13.73679,0.042345904
13.611302,0.04246936
13.48927,0.042745825
13.3705015,0.043370105
13.254824,0.042898852
13.142069,0.04235457
13.032082,0.04313023
12.924716,0.042588945
12.819836,0.04313576
12.717309,0.04334067
12.617017,0.04391556
12.518845,0.043737527
12.422684,0.044748787
12.328438,0.045238227
12.23601,0.04531271
12.145311,0.044992946
12.056257,0.04481297
11.968773,0.044685178
11.882783,0.044733353
11.798219,0.04551591
11.7150135,0.04546701
11.633108,0.04600576
11.552444,0.046169735
11.472969,0.046299554
11.394629,0.046235237
11.317378,0.04626189
11.241171,0.04654319
11.165965,0.046433665
11.091721,0.045729004
11.018401,0.045670573
10.945969,0.04510976
10.874393,0.04517279
10.803641,0.044594225
10.733684,0.045798816
10.664492,0.04684549
10.596042,0.047731034
10.528306,0.04824518
10.461264,0.048866943
10.394891,0.0489343
10.329167,0.04804969
10.264075,0.048106622
10.199594,0.04773393
10.135705,0.0481065
10.072394,0.048913892
10.0096445,0.04936572
9.947442,0.049126532
9.885775,0.049910776
9.824624,0.049740665
9.763982,0.04882162
9.703834,0.048562594
9.64417,0.050294638
9.584979,0.049013145
9.526253,0.049506
9.467979,0.0510387
9.410151,0.051622637
9.3527565,0.051123608
9.295791,0.0514369
9.239244,0.05143711
9.183109,0.052582413
9.12738,0.052903462
9.07205,0.053186078
9.01711,0.05330866
8.962557,0.053754754
8.908382,0.05298044
8.854581,0.05322029
8.801149,0.053997494
8.74808,0.054241996
8.69537,0.05553186
8.643014,0.054985456
8.591007,0.05396496
8.539344,0.05365323
8.48802,0.05432009
8.437034,0.054389972
8.38638,0.055108406
8.336055,0.05674867
8.286055,0.057003397
8.236377,0.056200277
8.187016,0.057337947
8.13797,0.05687987
8.089236,0.05695305
8.04081,0.05720569
7.9926906,0.05791375
7.9448724,0.059405617
7.8973556,0.060913224
7.850135,0.06118707
7.80321,0.062300004
7.7565756,0.06314299
7.710231,0.062250186
7.664174,0.06338279
7.6184006,0.063429765
7.57291,0.06280325
7.5276995,0.063373506
7.482766,0.064628065
7.4381084,0.06374605
7.3937244,0.06442356
7.349611,0.06599669
7.3057675,0.066392764
7.2621903,0.06579053
7.218879,0.066386566
7.175831,0.06637977
7.133044,0.06642139
7.090517,0.06620486
7.0482473,0.06696274
7.0062337,0.06897192
6.9644732,0.069281146
6.9229665,0.06964405
6.881709,0.07212065
6.840701,0.07313724
6.79994,0.072720736
6.7594247,0.07353288
6.719154,0.07391952
6.679125,0.07311138
6.6393356,0.07365898
6.599786,0.07349481
6.560474,0.0736583
6.5213976,0.07543679
6.482556,0.07560855
6.443947,0.07555412
6.4055705,0.077594966
6.367422,0.078573406
6.3295035,0.07789606
6.291812,0.07940214
6.254346,0.078948304
6.217103,0.07842775
6.1800838,0.07942665
6.1432858,0.07996155
6.106708,0.07978604
6.0703483,0.08080262
6.034206,0.08116617
5.9982805,0.082439736
5.9625683,0.08238508
5.92707,0.082694605
5.891784,0.08281985
5.856708,0.084184386
5.8218417,0.08431411
5.787183,0.08481904
5.752732,0.08551647
5.718485,0.08640984
5.684444,0.08590463
5.650605,0.08584037
5.616968,0.088036224
5.583532,0.089474425
5.550295,0.089552
5.5172563,0.08896874
5.4844136,0.090230264
5.4517684,0.088038094
5.419316,0.08957096
5.387058,0.08956776
5.3549924,0.09085042
5.3231173,0.09112142
5.2914324,0.091804385
5.2599363,0.091456115
5.228627,0.09089193
5.1975055,0.0903876
5.166569,0.09226497
5.135817,0.09062435
5.105248,0.0904553
5.0748606,0.09135489
5.044654,0.09435071
5.0146275,0.09332166
4.9847803,0.09701464
4.955111,0.0981088
4.9256177,0.098106146
4.8963003,0.09780309
4.867158,0.09801546
4.8381886,0.09619922
4.809392,0.09669969
4.7807665,0.100014664
4.7523127,0.09870212
4.724026,0.100677535
4.695909,0.10259569
4.667959,0.09994089
4.640177,0.09889494
4.612559,0.099171996
4.585105,0.09865641
4.557816,0.09900795
4.530688,0.10000174
4.5037217,0.10189128
4.4769163,0.102257885
4.450271,0.10140057
4.423784,0.099625885
4.3974533,0.099561416
4.3712807,0.099492595
4.345264,0.10033913
4.3194017,0.101276375
4.293693,0.103321314
4.2681384,0.10462095
4.2427354,0.10336335
4.217483,0.102259256
4.192381,0.10191822
4.16743,0.10235405
4.142626,0.103843965
4.11797,0.105524495
4.09346,0.10731021
4.069097,0.10929205
4.0448785,0.107341506
4.0208044,0.10780348
3.9968739,0.109448865
3.9730854,0.110287085
3.949438,0.109383486
3.925932,0.11096388
3.9025662,0.11283858
3.8793387,0.11201565
3.85625,0.1110846
3.8332987,0.11345581
3.8104842,0.11213274
3.7878044,0.11126939
3.7652605,0.1120321
3.742851,0.11464435
3.7205741,0.11347534
3.6984303,0.11366354
3.6764178,0.118099555
3.6545374,0.11860782
3.632786,0.11801778
3.6111646,0.11832194
3.5896719,0.122471735
3.5683074,0.12015035
3.5470698,0.1201527
3.525958,0.120562986
3.5049734,0.12107749
3.484112,0.1208639
3.4633756,0.12148265
3.4427624,0.12252661
3.4222722,0.12315406
3.4019039,0.12196897
3.3816562,0.12162484
3.3615294,0.12310964
3.3415227,0.125369
3.321635,0.12579146
3.3018653,0.12632456
3.2822137,0.12542044
3.2626784,0.1267282
3.24326,0.12883128
3.2239568,0.12994076
3.2047691,0.13139896
3.1856952,0.13298407
3.1667347,0.13389502
3.1478868,0.12973359
3.1291518,0.12876865
3.1105278,0.13281026
3.0920146,0.13431051
3.0736122,0.1312137
3.0553188,0.13390203
3.037134,0.13350745
3.0190578,0.13202024
3.0010896,0.13268958
2.9832275,0.13458021
2.9654722,0.1337932
2.9478228,0.13631985
2.930278,0.13428418
2.9128375,0.13758293
2.895501,0.13602254
2.878268,0.13797304
2.8611374,0.13689427
2.8441086,0.13809715
2.8271809,0.13879552
2.8103547,0.1422122
2.7936282,0.14033246
2.7770011,0.14182685
2.7604735,0.14517681
2.7440438,0.1456488
2.7277122,0.14558844
2.711477,0.14699616
2.6953394,0.14881985
2.6792972,0.14713436
2.663351,0.1466511
2.6474993,0.14876428
2.631742,0.14758413
2.6160786,0.14832889
2.6005085,0.15061416
2.5850313,0.14940763
2.5696461,0.15129192
2.5543516,0.1543314
2.5391486,0.1546831
2.524037,0.15517737
2.5090146,0.15900266
2.4940815,0.15980898
2.4792366,0.15900728
2.4644816,0.16099128
2.4498136,0.16062039
2.4352329,0.16068691
2.420739,0.16104864
2.4063315,0.1648817
2.3920097,0.16708407
2.377773,0.16808447
2.363621,0.16862969
2.3495533,0.16948469
2.3355696,0.17112173
2.3216686,0.16948587
2.3078513,0.16971341
2.294115,0.16772047
2.280461,0.16824667
2.2668889,0.1676512
2.253397,0.16881624
2.2399855,0.17031363
2.2266536,0.17068067
2.213401,0.17367241
2.2002275,0.17421684
2.1871324,0.17426321
2.174115,0.1734683
2.1611753,0.17652436
2.1483126,0.17504437
2.1355262,0.1759223
2.1228166,0.17697558
2.1101818,0.1809623
2.0976226,0.18031368
2.0851378,0.18209031
2.0727284,0.18808864
2.060392,0.18850948
2.0481286,0.1857354
2.0359385,0.18863207
2.0238216,0.18904336
2.0117764,0.1894528
1.9998028,0.19149555
1.9879006,0.19245933
1.9760691,0.19269234
1.9643079,0.18940684
1.9526169,0.18774976
1.9409955,0.18906108
1.9294431,0.19019307
1.9179596,0.19190012
1.9065444,0.1930491
1.8951972,0.19171269
1.8839173,0.19112483
1.8727047,0.19401528
1.8615594,0.19459134
1.8504798,0.1985053
1.8394659,0.20522444
1.8285179,0.207248
1.8176354,0.20848885
1.8068173,0.20812841
1.7960637,0.2075539
1.7853739,0.2043195
1.7747478,0.20554283
1.7641851,0.20141876
1.753685,0.20158884
1.7432475,0.20154528
1.7328722,0.20128433
1.7225585,0.20143488
1.7123064,0.20646033
1.7021154,0.20662916
1.6919845,0.20743689
1.6819143,0.20867892
1.6719041,0.21144955
1.6619537,0.2175251
1.6520622,0.22234634
1.6422291,0.22611137
1.6324553,0.22523944
1.6227394,0.22793145
1.6130813,0.22546706
1.6034806,0.2272702
1.5939372,0.23022656
1.5844505,0.2332102
1.5750202,0.23645203
1.5656462,0.23624325
1.5563277,0.23765776
1.5470649,0.23743673
1.5378572,0.2379133
1.5287046,0.23719867
1.5196058,0.23694523
1.5105615,0.23595862
1.5015709,0.23930714
1.4926344,0.24000964
1.4837507,0.24267106
1.4749194,0.24264601
1.466141,0.24360323
1.4574152,0.24580963
1.4487412,0.24577661
1.4401187,0.2416977
1.4315474,0.24111438
1.4230273,0.243324
1.4145577,0.244524
1.4061385,0.25089753
1.3977697,0.25759846
1.3894506,0.26070982
1.3811809,0.26042932
1.3729603,0.2601362
1.3647891,0.25903147
