energy,intensity
97.76732,0.0060501467
92.828835,0.006434639
88.18945,0.0067072273
83.8307,0.0071383147
79.735245,0.007564199
75.88682,0.008024406
72.27017,0.008290234
68.87099,0.00877854
65.67586,0.0093715815
62.672165,0.009791748
59.848106,0.010223437
57.19261,0.010602827
54.69525,0.011206519
52.346306,0.011785741
50.136597,0.012384899
48.057564,0.013071895
46.10113,0.013602992
44.25976,0.014070417
42.52636,0.014524324
40.894283,0.01529945
39.357292,0.01601694
37.909534,0.016676543
36.545517,0.017149847
35.260098,0.017579267
34.04844,0.01811948
32.906017,0.018825838
31.828575,0.019771334
30.812122,0.020494316
29.85292,0.021384062
28.947456,0.022165908
28.092442,0.022517208
27.284779,0.022850838
26.521572,0.02356321
25.800108,0.024348862
25.117828,0.02512598
24.472345,0.025759008
23.861408,0.02724078
23.282911,0.028229717
22.734882,0.028974125
22.215462,0.029438954
21.722916,0.030006101
21.255604,0.030221367
20.812004,0.030935353
20.390675,0.030915275
19.990267,0.03227971
19.609518,0.033128813
19.247244,0.03407328
18.902327,0.03469502
18.573725,0.03528928
18.260456,0.03533756
17.961601,0.035783928
17.676302,0.035888728
17.403744,0.036534287
17.143167,0.037216775
16.893862,0.03774448
16.655159,0.03845996
16.426428,0.039393637
16.207083,0.039142143
15.996571,0.038930424
15.794373,0.039336793
15.6,0.03980363
15.412999,0.040404424
15.232939,0.04116825
15.05942,0.041401334
14.892062,0.04262293
14.730514,0.042523075
14.574441,0.042629424
14.423531,0.042143404
14.277491,0.04252358
14.136047,0.042717744
13.998942,0.04285062
13.865933,0.04320926
13.73679,0.04372128
13.611302,0.044151057
13.48927,0.04457741
13.3705015,0.045190778
13.254824,0.045119174
13.142069,0.044953354
13.032082,0.045221224
12.924716,0.04433186
12.819836,0.044326104
12.717309,0.04425491
12.617017,0.045125037
12.518845,0.044869423
12.422684,0.04594794
12.328438,0.046623375
12.23601,0.046559848
12.145311,0.046219483
12.056257,0.04589788
11.968773,0.04562623
11.882783,0.045528337
11.798219,0.046193417
11.7150135,0.045994263
11.633108,0.04641179
11.552444,0.046547152
11.472969,0.046489563
11.394629,0.0458526
11.317378,0.04597296
11.241171,0.046349265
11.165965,0.046270967
11.091721,0.04615485
11.018401,0.046231147
10.945969,0.046238333
10.874393,0.04647585
10.803641,0.046645693
10.733684,0.047389757
10.664492,0.048651174
10.596042,0.049205482
10.528306,0.04993618
10.461264,0.05067297
10.394891,0.05054214
10.329167,0.049456708
10.264075,0.04966416
10.199594,0.049123205
10.135705,0.0487876
10.072394,0.049923915
10.0096445,0.05020058
9.947442,0.04941874
9.885775,0.050094545
9.824624,0.050221432
9.763982,0.049528636
9.703834,0.049798198
9.64417,0.051161133
9.584979,0.05056731
9.526253,0.050192524
9.467979,0.05153758
9.410151,0.05262651
9.3527565,0.052289046
9.295791,0.05241404
9.239244,0.05281348
9.183109,0.05297807
9.12738,0.05346076
9.07205,0.05350647
9.01711,0.05330866
8.962557,0.053308826
8.908382,0.053021222
8.854581,0.05326132
8.801149,0.053584676
8.74808,0.0539928
8.69537,0.055448294
8.643014,0.05561602
8.591007,0.055360604
8.539344,0.055227518
8.48802,0.055989504
8.437034,0.055681884
8.38638,0.05640813
8.336055,0.05670508
8.286055,0.057178807
8.236377,0.05615617
8.187016,0.056938536
8.13797,0.056165524
8.089236,0.056548815
8.04081,0.057205677
7.9926906,0.058004666
7.9448724,0.058765363
7.8973556,0.060085095
7.850135,0.060400236
7.80321,0.06136877
7.7565756,0.062065624
7.710231,0.061731834
7.664174,0.062434644
7.6184006,0.062332857
7.57291,0.06193965
7.5276995,0.062118582
7.482766,0.06336561
7.4381084,0.062329464
7.3937244,0.0625562
7.349611,0.06342603
7.3057675,0.06475158
7.2621903,0.06468985
7.218879,0.0651283
7.175831,0.06541775
7.133044,0.06535172
7.090517,0.0643089
7.0482473,0.06484921
7.0062337,0.066845715
6.9644732,0.06745522
6.9229665,0.06754474
6.881709,0.06963919
6.840701,0.07095959
6.79994,0.07138494
6.7594247,0.07122154
6.719154,0.0722973
6.679125,0.072077796
6.6393356,0.072400324
6.599786,0.07200839
6.560474,0.07138763
6.5213976,0.0722611
6.482556,0.07174125
6.443947,0.07070511
6.4055705,0.07260348
6.367422,0.074065566
6.3295035,0.07387783
6.291812,0.076457046
6.254346,0.076043665
6.217103,0.07573946
6.1800838,0.075370066
6.1432858,0.07576238
6.106708,0.07562121
6.0703483,0.07679242
6.034206,0.07683088
5.9982805,0.077351615
5.9625683,0.07824145
5.92707,0.07754534
5.891784,0.07708474
5.856708,0.078290865
5.8218417,0.07888454
5.787183,0.07879193
5.752732,0.07932694
5.718485,0.08056447
5.684444,0.080152094
5.650605,0.079989076
5.616968,0.08072683
5.583532,0.082446635
5.550295,0.08248211
5.5172563,0.08231749
5.4844136,0.08340667
5.4517684,0.08164018
5.419316,0.083537
5.387058,0.08302554
5.3549924,0.084540434
5.3231173,0.08484189
5.2914324,0.085899234
5.2599363,0.08565377
5.228627,0.08568024
5.1975055,0.08591366
5.166569,0.086568736
5.135817,0.085813686
5.105248,0.084904134
5.0748606,0.08534094
5.044654,0.08743646
5.0146275,0.0870181
4.9847803,0.08921558
4.955111,0.09172954
4.9256177,0.092647605
4.8963003,0.091050394
4.867158,0.09264065
4.8381886,0.09086734
4.809392,0.09042932
4.7807665,0.09325074
4.7523127,0.0934268
4.724026,0.0951399
4.695909,0.09648327
4.667959,0.09519293
4.640177,0.09317892
4.612559,0.0938156
4.585105,0.09350568
4.557816,0.09454382
4.530688,0.09567128
4.5037217,0.097534895
4.4769163,0.09820004
4.450271,0.09878799
4.423784,0.09732619
4.3974533,0.09633908
4.3712807,0.095835395
4.345264,0.097161725
4.3194017,0.09757524
4.293693,0.09942879
4.2681384,0.09976872
4.2427354,0.09916715
4.217483,0.097521044
4.192381,0.09611167
4.16743,0.098082036
4.142626,0.100160316
4.11797,0.1010247
4.09346,0.1025172
4.069097,0.104113184
4.0448785,0.102940045
4.0208044,0.10129732
3.9968739,0.10335829
3.9730854,0.10489162
3.949438,0.1048757
3.925932,0.10716947
3.9025662,0.108276606
3.8793387,0.107613705
3.85625,0.10722162
3.8332987,0.10871662
3.8104842,0.10841404
3.7878044,0.10714476
3.7652605,0.10788276
3.742851,0.11134382
3.7205741,0.11064331
3.6984303,0.10983218
3.6764178,0.1139488
3.6545374,0.11353741
3.632786,0.11361712
3.6111646,0.114699855
3.5896719,0.119435236
3.5683074,0.11750295
3.5470698,0.11748948
3.525958,0.11633812
3.5049734,0.11703466
3.484112,0.115754046
3.4633756,0.11581765
3.4427624,0.116616644
3.4222722,0.1178457
3.4019039,0.117590055
3.3816562,0.11861645
3.3615294,0.12008325
3.3415227,0.12178081
3.321635,0.12032229
3.3018653,0.12126279
3.2822137,0.12032835
3.2626784,0.121494256
3.24326,0.12334196
3.2239568,0.12498204
3.2047691,0.1250501
3.1856952,0.12568477
3.1667347,0.12655203
3.1478868,0.1248859
3.1291518,0.12458861
3.1105278,0.1269699
3.0920146,0.1291402
3.0736122,0.12601243
3.0553188,0.12641016
3.037134,0.12597074
3.0190578,0.12708601
3.0010896,0.12796798
2.9832275,0.13056107
2.9654722,0.13085268
2.9478228,0.13163614
2.930278,0.13180433
2.9128375,0.13346666
2.895501,0.13200712
2.878268,0.13330238
2.8611374,0.13460848
2.8441086,0.13464794
2.8271809,0.13622522
2.8103547,0.14156577
2.7936282,0.1389018
2.7770011,0.1373784
2.7604735,0.14214954
2.7440438,0.1410145
2.7277122,0.14119281
2.711477,0.14337818
2.6953394,0.14450625
2.6792972,0.14130323
2.663351,0.14214924
2.6474993,0.1412163
2.631742,0.14137152
2.6160786,0.14319015
2.6005085,0.14795955
2.5850313,0.14575323
2.5696461,0.14733288
2.5543516,0.14949521
2.5391486,0.1488163
2.524037,0.15085888
2.5090146,0.15407906
2.4940815,0.15398188
2.4792366,0.15578319
2.4644816,0.15671586
2.4498136,0.15572615
2.4352329,0.15829971
2.420739,0.1581969
2.4063315,0.15944603
2.3920097,0.16131207
2.377773,0.16105548
2.363621,0.16048262
2.3495533,0.16020636
2.3355696,0.16209896
2.3216686,0.16181755
2.3078513,0.16357352
2.294115,0.16296917
2.280461,0.16362628
2.2668889,0.16284288
2.253397,0.16446283
2.2399855,0.16674514
2.2266536,0.16741717
2.213401,0.17055354
2.2002275,0.17140955
2.1871324,0.17160523
2.174115,0.1714629
2.1611753,0.17417067
2.1483126,0.17386049
2.1355262,0.17524174
2.1228166,0.17475054
2.1101818,0.1773465
2.0976226,0.17736906
2.0851378,0.1793023
2.0727284,0.18160284
2.060392,0.18216115
2.0481286,0.18112306
2.0359385,0.18202908
2.0238216,0.18293938
2.0117764,0.18277048
1.9998028,0.18459153
1.9879006,0.18533121
1.9760691,0.1822119
1.9643079,0.18126826
1.9526169,0.18253966
1.9409955,0.183071
1.9294431,0.18605025
1.9179596,0.18489096
1.9065444,0.1863791
1.8951972,0.1857696
1.8839173,0.18437472
1.8727047,0.18838885
1.8615594,0.1916637
1.8504798,0.19497107
1.8394659,0.19752114
1.8285179,0.20029338
1.8176354,0.19789448
1.8068173,0.19747064
1.7960637,0.19743916
1.7853739,0.19801083
1.7747478,0.20124361
1.7641851,0.1968879
1.753685,0.1997242
1.7432475,0.19966951
1.7328722,0.19751026
1.7225585,0.19721633
1.7123064,0.20264094
1.7021154,0.20193306
1.6919845,0.2046453
1.6819143,0.20803082
1.6719041,0.20884171
1.6619537,0.21031073
1.6520622,0.21552864
1.6422291,0.21748285
1.6324553,0.21900757
1.6227394,0.22255783
1.6130813,0.22343989
1.6034806,0.22500429
1.5939372,0.22566764
1.5844505,0.22862396
1.5750202,0.23091558
1.5656462,0.2304416
1.5563277,0.23228829
1.5470649,0.2325048
1.5378572,0.23200682
1.5287046,0.22959308
1.5196058,0.23335879
1.5105615,0.23162913
1.5015709,0.23495176
1.4926344,0.23733208
1.4837507,0.23875305
1.4749194,0.23845825
1.466141,0.23914254
1.4574152,0.24281803
1.4487412,0.24126236
1.4401187,0.23967934
1.4315474,0.24187581
1.4230273,0.24255803
1.4145577,0.24067123
1.4061385,0.24417937
1.3977697,0.24954042
1.3894506,0.2489425
1.3811809,0.25280058
1.3729603,0.2524618
1.3647891,0.25024623
