energy,intensity
97.76732,0.008027224
92.828835,0.008618659
88.18945,0.009072061
83.8307,0.009509088
79.735245,0.0100749675
75.88682,0.010700804
72.27017,0.011105599
68.87099,0.011717031
65.67586,0.012569207
62.672165,0.013096245
59.848106,0.013653511
57.19261,0.014274746
54.69525,0.014992954
52.346306,0.01578373
50.136597,0.016566344
48.057564,0.01738887
46.10113,0.018103171
44.25976,0.018823497
42.52636,0.019642016
40.894283,0.020568075
39.357292,0.021445159
37.909534,0.022292897
36.545517,0.02296588
35.260098,0.023658847
34.04844,0.024404742
32.906017,0.025307227
31.828575,0.026472125
30.812122,0.027593037
29.85292,0.028710868
28.947456,0.029659137
28.092442,0.03060064
27.284779,0.03110697
26.521572,0.032139126
25.800108,0.033066012
25.117828,0.03393526
24.472345,0.034845185
23.861408,0.036422554
23.282911,0.037483573
22.734882,0.03859488
22.215462,0.039317366
21.722916,0.039924506
21.255604,0.039793745
20.812004,0.04064193
20.390675,0.041232247
19.990267,0.042367123
19.609518,0.04320827
19.247244,0.044550106
18.902327,0.04526692
18.573725,0.045813467
18.260456,0.046062194
17.961601,0.046666775
17.676302,0.04696778
17.403744,0.047786843
17.143167,0.048873503
16.893862,0.049573235
16.655159,0.050480057
16.426428,0.05135992
16.207083,0.05149457
15.996571,0.051490825
15.794373,0.051666923
15.6,0.051821582
15.412999,0.052544612
15.232939,0.053451937
15.05942,0.053488784
14.892062,0.054724235
14.730514,0.054510437
14.574441,0.054321356
14.423531,0.0541088
14.277491,0.05466227
14.136047,0.054643758
13.998942,0.054789614
13.865933,0.055420004
13.73679,0.05586167
13.611302,0.056349985
13.48927,0.056725092
13.3705015,0.057120275
13.254824,0.056659378
13.142069,0.0559567
13.032082,0.05615016
12.924716,0.055717014
12.819836,0.055861093
12.717309,0.056054313
12.617017,0.056413494
12.518845,0.056188356
12.422684,0.05709126
12.328438,0.05758665
12.23601,0.057695
12.145311,0.057647217
12.056257,0.057470303
11.968773,0.057192165
11.882783,0.056872208
11.798219,0.05740302
11.7150135,0.057345502
11.633108,0.05781172
11.552444,0.05827828
11.472969,0.058238626
11.394629,0.058160752
11.317378,0.058300905
11.241171,0.058760785
11.165965,0.05879863
11.091721,0.05794744
11.018401,0.057937324
10.945969,0.057623655
10.874393,0.057635397
10.803641,0.057844687
10.733684,0.058560204
10.664492,0.059723746
10.596042,0.060555328
10.528306,0.06135903
10.461264,0.06255108
10.394891,0.062356282
10.329167,0.06095909
10.264075,0.060850102
10.199594,0.060201753
10.135705,0.059613355
10.072394,0.06056521
10.0096445,0.06119898
9.947442,0.060157172
9.885775,0.061414517
9.824624,0.061463933
9.763982,0.06087817
9.703834,0.061517615
9.64417,0.06287771
9.584979,0.062356252
9.526253,0.06262623
9.467979,0.06358731
9.410151,0.06393947
9.3527565,0.06363257
9.295791,0.06374893
9.239244,0.06409976
9.183109,0.0643729
9.12738,0.06468632
9.07205,0.06484055
9.01711,0.06463121
8.962557,0.06494353
8.908382,0.06395175
8.854581,0.064053096
8.801149,0.064937346
8.74808,0.06533129
8.69537,0.06639588
8.643014,0.06650381
8.591007,0.06669494
8.539344,0.066119835
8.48802,0.06669086
8.437034,0.06627566
8.38638,0.06667597
8.336055,0.06712208
8.286055,0.06761481
8.236377,0.06727271
8.187016,0.06843275
8.13797,0.0679969
8.089236,0.06795738
8.04081,0.06814073
7.9926906,0.068460055
7.9448724,0.06951234
7.8973556,0.07089673
7.850135,0.07090664
7.80321,0.07207803
7.7565756,0.072605066
7.710231,0.0718634
7.664174,0.07224785
7.6184006,0.072777316
7.57291,0.07239886
7.5276995,0.07259234
7.482766,0.073610924
7.4381084,0.07283169
7.3937244,0.073416315
7.349611,0.07400528
7.3057675,0.07514565
7.2621903,0.07534642
7.218879,0.07625145
7.175831,0.07665825
7.133044,0.07584467
7.090517,0.07501851
7.0482473,0.075623065
7.0062337,0.07742487
6.9644732,0.07804562
6.9229665,0.079143345
6.881709,0.080726564
6.840701,0.08184785
6.79994,0.081804164
6.7594247,0.082186975
6.719154,0.08219289
6.679125,0.080890335
6.6393356,0.08121094
6.599786,0.08114708
6.560474,0.08135642
6.5213976,0.08245677
6.482556,0.08205406
6.443947,0.08232014
6.4055705,0.084515
6.367422,0.08524958
6.3295035,0.08461223
6.291812,0.08552332
6.254346,0.08365383
6.217103,0.08392119
6.1800838,0.08436509
6.1432858,0.08528444
6.106708,0.08561678
6.0703483,0.0869077
6.034206,0.08730782
5.9982805,0.087527856
5.9625683,0.08725994
5.92707,0.08655655
5.891784,0.08738327
5.856708,0.08840291
5.8218417,0.08943162
5.787183,0.088648774
5.752732,0.08987441
5.718485,0.0908574
5.684444,0.089547895
5.650605,0.089569755
5.616968,0.09120578
5.583532,0.092272535
5.550295,0.092039555
5.5172563,0.09226145
5.4844136,0.09294645
5.4517684,0.091570295
5.419316,0.093526565
5.387058,0.09374939
5.3549924,0.09519279
5.3231173,0.09446595
5.2914324,0.095237605
5.2599363,0.094564535
5.228627,0.09478333
5.1975055,0.09542077
5.166569,0.09599213
5.135817,0.09571798
5.105248,0.09550826
5.0748606,0.09557899
5.044654,0.09838402
5.0146275,0.098321036
4.9847803,0.100731954
4.955111,0.10199503
4.9256177,0.10238445
4.8963003,0.10136497
4.867158,0.10174795
4.8381886,0.10002917
4.809392,0.10100584
4.7807665,0.10427058
4.7523127,0.104130365
4.724026,0.10690739
4.695909,0.10801174
4.667959,0.10616773
4.640177,0.10390624
4.612559,0.10460718
4.585105,0.10420338
4.557816,0.10570414
4.530688,0.106096484
4.5037217,0.10802253
4.4769163,0.108101204
4.450271,0.10768708
4.423784,0.10570364
4.3974533,0.10575819
4.3712807,0.105560206
4.345264,0.10535608
4.3194017,0.10691218
4.293693,0.10789081
4.2681384,0.10802603
4.2427354,0.107987724
4.217483,0.10725592
4.192381,0.106684804
4.16743,0.10775946
4.142626,0.109194025
4.11797,0.110818364
4.09346,0.11201445
4.069097,0.11420306
4.0448785,0.11353947
4.0208044,0.113134906
3.9968739,0.11426681
3.9730854,0.11577401
3.949438,0.11619122
3.925932,0.118275106
3.9025662,0.11907636
3.8793387,0.11866541
3.85625,0.118716374
3.8332987,0.1210385
3.8104842,0.1193794
3.7878044,0.11865538
3.7652605,0.11917281
3.742851,0.12173073
3.7205741,0.121385396
3.6984303,0.12221042
3.6764178,0.12442456
3.6545374,0.12546776
3.632786,0.12481879
3.6111646,0.12576738
3.5896719,0.12945566
3.5683074,0.12890705
3.5470698,0.1272205
3.525958,0.12777616
3.5049734,0.12802286
3.484112,0.1262866
3.4633756,0.12746236
3.4427624,0.12917534
3.4222722,0.13090427
3.4019039,0.12976557
3.3816562,0.13075744
3.3615294,0.13132416
3.3415227,0.13091439
3.321635,0.1303856
3.3018653,0.13281685
3.2822137,0.1319516
3.2626784,0.13430071
3.24326,0.1383536
3.2239568,0.13884391
3.2047691,0.13888155
3.1856952,0.13880067
3.1667347,0.1388286
3.1478868,0.1367743
3.1291518,0.13794154
3.1105278,0.1393515
3.0920146,0.14159593
3.0736122,0.14007948
3.0553188,0.14151278
3.037134,0.14092453
3.0190578,0.14068517
3.0010896,0.14164856
2.9832275,0.14395818
2.9654722,0.14408498
2.9478228,0.14371511
2.930278,0.14259171
2.9128375,0.1441939
2.895501,0.14292404
2.878268,0.14567326
2.8611374,0.14743438
2.8441086,0.14767838
2.8271809,0.14894815
2.8103547,0.15177919
2.7936282,0.15151742
2.7770011,0.1526863
2.7604735,0.15623286
2.7440438,0.15518217
2.7277122,0.1558449
2.711477,0.15570603
2.6953394,0.15731227
2.6792972,0.15364352
2.663351,0.15510912
2.6474993,0.15452822
2.631742,0.15559152
2.6160786,0.15791193
2.6005085,0.15955597
2.5850313,0.15798132
2.5696461,0.1587858
2.5543516,0.16158572
2.5391486,0.16069297
2.524037,0.16568565
2.5090146,0.16928427
2.4940815,0.16680154
2.4792366,0.16706756
2.4644816,0.17042664
2.4498136,0.16862915
2.4352329,0.16963881
2.420739,0.17200534
2.4063315,0.17363915
2.3920097,0.17437498
2.377773,0.1735854
2.363621,0.1718578
2.3495533,0.17056718
2.3355696,0.17158842
2.3216686,0.17026836
2.3078513,0.17113033
2.294115,0.16946259
2.280461,0.17079589
2.2668889,0.16973484
2.253397,0.17268595
2.2399855,0.17631513
2.2266536,0.17590223
2.213401,0.18073094
2.2002275,0.18082222
2.1871324,0.17908078
2.174115,0.17764623
2.1611753,0.18072729
2.1483126,0.1792725
2.1355262,0.17983547
2.1228166,0.18091217
2.1101818,0.18647212
2.0976226,0.18880105
2.0851378,0.1920225
2.0727284,0.19510031
2.060392,0.19626848
2.0481286,0.19212171
2.0359385,0.19291513
2.0238216,0.1906591
2.0117764,0.189814
1.9998028,0.19294903
1.9879006,0.19501814
1.9760691,0.19508262
1.9643079,0.19458593
1.9526169,0.19333203
1.9409955,0.19205609
1.9294431,0.19377095
1.9179596,0.19303676
1.9065444,0.19533595
1.8951972,0.19593038
1.8839173,0.19575348
1.8727047,0.20080583
1.8615594,0.20337431
1.8504798,0.2071445
1.8394659,0.2105575
1.8285179,0.21281174
1.8176354,0.21168713
1.8068173,0.21114478
1.7960637,0.21038601
1.7853739,0.2092036
1.7747478,0.20984204
1.7641851,0.20615566
1.753685,0.20946178
1.7432475,0.21009067
1.7328722,0.21134853
1.7225585,0.20923916
1.7123064,0.21346259
1.7021154,0.21089835
1.6919845,0.21001378
1.6819143,0.21235132
1.6719041,0.21362272
1.6619537,0.21883683
1.6520622,0.2243257
1.6422291,0.22898754
1.6324553,0.23191652
1.6227394,0.23420067
1.6130813,0.23605339
1.6034806,0.23542745
1.5939372,0.23888855
1.5844505,0.24146542
1.5750202,0.24637142
1.5656462,0.24366936
1.5563277,0.244428
1.5470649,0.24424744
1.5378572,0.24240224
1.5287046,0.24171445
1.5196058,0.24340089
1.5105615,0.24509874
1.5015709,0.24850199
1.4926344,0.25218052
1.4837507,0.25124168
1.4749194,0.2549631
1.466141,0.2550028
1.4574152,0.25702813
1.4487412,0.2590686
1.4401187,0.25708762
1.4315474,0.25659648
1.4230273,0.25813282
1.4145577,0.25916463
1.4061385,0.26174995
1.3977697,0.26643637
1.3894506,0.27090806
1.3811809,0.27226704
1.3729603,0.2712509
1.3647891,0.2731411
