energy,intensity
97.76732,0.008699873
92.828835,0.009237074
88.18945,0.009669447
83.8307,0.010250222
79.735245,0.010876955
75.88682,0.011548251
72.27017,0.01201556
68.87099,0.012661357
65.67586,0.013509685
62.672165,0.014168759
59.848106,0.014721992
57.19261,0.015342018
54.69525,0.016182024
52.346306,0.01695675
50.136597,0.017769324
48.057564,0.01858341
46.10113,0.01946662
44.25976,0.020301133
42.52636,0.020932114
40.894283,0.02196297
39.357292,0.023023773
37.909534,0.023864713
36.545517,0.024586417
35.260098,0.025225118
34.04844,0.026048085
32.906017,0.0269745
31.828575,0.028173009
30.812122,0.029267484
29.85292,0.030280903
28.947456,0.031215528
28.092442,0.03215266
27.284779,0.032824773
26.521572,0.033591274
25.800108,0.034530606
25.117828,0.035367314
24.472345,0.03630016
23.861408,0.037747283
23.282911,0.03895046
22.734882,0.0400332
22.215462,0.040952865
21.722916,0.041714177
21.255604,0.04225521
20.812004,0.04317332
20.390675,0.04363776
19.990267,0.04491169
19.609518,0.045635495
19.247244,0.0471174
18.902327,0.04801561
18.573725,0.048532546
18.260456,0.04876823
17.961601,0.049357146
17.676302,0.04974269
17.403744,0.050605208
17.143167,0.05201023
16.893862,0.052949816
16.655159,0.05399229
16.426428,0.055407673
16.207083,0.055574678
15.996571,0.05614704
15.794373,0.05695785
15.6,0.057783972
15.412999,0.05872078
15.232939,0.06013044
15.05942,0.060654394
14.892062,0.061653208
14.730514,0.061860718
14.574441,0.06217414
14.423531,0.06191781
14.277491,0.062398463
14.136047,0.062457353
13.998942,0.06262782
13.865933,0.063176185
13.73679,0.06355851
13.611302,0.06382416
13.48927,0.06434769
13.3705015,0.06478342
13.254824,0.06433457
13.142069,0.0640295
13.032082,0.0641517
12.924716,0.06353202
12.819836,0.06356998
12.717309,0.06359679
12.617017,0.06404473
12.518845,0.0640826
12.422684,0.06478338
12.328438,0.06483654
12.23601,0.0649106
12.145311,0.06443803
12.056257,0.064251006
11.968773,0.06429565
11.882783,0.06433286
11.798219,0.065040335
11.7150135,0.064913
11.633108,0.065744825
11.552444,0.06475715
11.472969,0.06511073
11.394629,0.064697444
11.317378,0.06501064
11.241171,0.065322086
11.165965,0.065046184
11.091721,0.06433507
11.018401,0.064433426
10.945969,0.064428285
10.874393,0.06468529
10.803641,0.064772606
10.733684,0.06563482
10.664492,0.06704868
10.596042,0.06803044
10.528306,0.06891676
10.461264,0.06949735
10.394891,0.06924202
10.329167,0.06827559
10.264075,0.0683192
10.199594,0.06675626
10.135705,0.06653179
10.072394,0.067743585
10.0096445,0.06816827
9.947442,0.06771791
9.885775,0.068801895
9.824624,0.06860144
9.763982,0.06761347
9.703834,0.06821977
9.64417,0.06931994
9.584979,0.068535015
9.526253,0.06827098
9.467979,0.06934355
9.410151,0.07023303
9.3527565,0.069848225
9.295791,0.06992449
9.239244,0.070155814
9.183109,0.07046597
9.12738,0.07065737
9.07205,0.0710883
9.01711,0.071481146
8.962557,0.07163246
8.908382,0.0705998
8.854581,0.07057741
8.801149,0.07104716
8.74808,0.07176889
8.69537,0.0723293
8.643014,0.072473176
8.591007,0.07223522
8.539344,0.071736194
8.48802,0.07212715
8.437034,0.07187399
8.38638,0.0722648
8.336055,0.07270105
8.286055,0.072525874
8.236377,0.07247808
8.187016,0.0732701
8.13797,0.072818734
8.089236,0.07280827
8.04081,0.072840095
7.9926906,0.07364228
7.9448724,0.07417698
7.8973556,0.07577346
7.850135,0.075858995
7.80321,0.07701361
7.7565756,0.077476636
7.710231,0.07751822
7.664174,0.07769962
7.6184006,0.07835723
7.57291,0.0779643
7.5276995,0.07790163
7.482766,0.07832087
7.4381084,0.0775699
7.3937244,0.07793726
7.349611,0.07815788
7.3057675,0.0795221
7.2621903,0.07944894
7.218879,0.07957329
7.175831,0.07969623
7.133044,0.07946117
7.090517,0.07886167
7.0482473,0.0798501
7.0062337,0.08193655
6.9644732,0.08227135
6.9229665,0.08323695
6.881709,0.08442234
6.840701,0.08482219
6.79994,0.084849775
6.7594247,0.085035846
6.719154,0.08549143
6.679125,0.084480636
6.6393356,0.08454913
6.599786,0.08549622
6.560474,0.08573162
6.5213976,0.08708103
6.482556,0.08620159
6.443947,0.08615424
6.4055705,0.08786155
6.367422,0.088901505
6.3295035,0.087884195
6.291812,0.08973886
6.254346,0.088766016
6.217103,0.08906399
6.1800838,0.08936232
6.1432858,0.09007503
6.106708,0.0897816
6.0703483,0.091037616
6.034206,0.09007757
5.9982805,0.091283396
5.9625683,0.09158637
5.92707,0.091583185
5.891784,0.09157667
5.856708,0.09299365
5.8218417,0.09429948
5.787183,0.09411085
5.752732,0.09454812
5.718485,0.09562265
5.684444,0.09485303
5.650605,0.09522815
5.616968,0.096315905
5.583532,0.097087905
5.550295,0.096818276
5.5172563,0.09720049
5.4844136,0.09725258
5.4517684,0.09710184
5.419316,0.09868897
5.387058,0.100156724
5.3549924,0.10109569
5.3231173,0.1014963
5.2914324,0.10203539
5.2599363,0.10036687
5.228627,0.10096786
5.1975055,0.1010831
5.166569,0.101336755
5.135817,0.10144832
5.105248,0.10184226
5.0748606,0.10252367
5.044654,0.104506016
5.0146275,0.10469705
4.9847803,0.10670884
4.955111,0.10969416
4.9256177,0.10902323
4.8963003,0.108191885
4.867158,0.10846646
4.8381886,0.10738869
4.809392,0.10810723
4.7807665,0.110730514
4.7523127,0.11101122
4.724026,0.112906516
4.695909,0.114588395
4.667959,0.11231675
4.640177,0.11251942
4.612559,0.11287805
4.585105,0.11276151
4.557816,0.11447295
4.530688,0.11491779
4.5037217,0.11649327
4.4769163,0.1171908
4.450271,0.117647514
4.423784,0.11670929
4.3974533,0.11559039
4.3712807,0.115866885
4.345264,0.11756402
4.3194017,0.117847346
4.293693,0.11922993
4.2681384,0.12011405
4.2427354,0.121004485
4.217483,0.11983373
4.192381,0.118731245
4.16743,0.12118582
4.142626,0.12296389
4.11797,0.12396481
4.09346,0.124707066
4.069097,0.12652521
4.0448785,0.12611505
4.0208044,0.12605688
3.9968739,0.12808427
3.9730854,0.12994856
3.949438,0.1305426
3.925932,0.13197206
3.9025662,0.13378634
3.8793387,0.13327615
3.85625,0.13379146
3.8332987,0.13478209
3.8104842,0.13310996
3.7878044,0.13342735
3.7652605,0.13461222
3.742851,0.13726257
3.7205741,0.1373032
3.6984303,0.13783054
3.6764178,0.13994059
3.6545374,0.14038073
3.632786,0.1414213
3.6111646,0.14136252
3.5896719,0.14585271
3.5683074,0.14642051
3.5470698,0.14535098
3.525958,0.14477864
3.5049734,0.14771865
3.484112,0.14568324
3.4633756,0.1467653
3.4427624,0.14774957
3.4222722,0.14852802
3.4019039,0.1485629
3.3816562,0.14913012
3.3615294,0.15056343
3.3415227,0.15124741
3.321635,0.15051223
3.3018653,0.15207364
3.2822137,0.15209857
3.2626784,0.15356606
3.24326,0.15751025
3.2239568,0.15958029
3.2047691,0.16030899
3.1856952,0.16058452
3.1667347,0.16097234
3.1478868,0.15766558
3.1291518,0.1581451
3.1105278,0.16189538
3.0920146,0.1625122
3.0736122,0.1625395
3.0553188,0.16279915
3.037134,0.16377392
3.0190578,0.16258828
3.0010896,0.16392492
2.9832275,0.16490643
2.9654722,0.16773158
2.9478228,0.16885908
2.930278,0.16776225
2.9128375,0.16901618
2.895501,0.16940075
2.878268,0.17054123
2.8611374,0.17016545
2.8441086,0.17169526
2.8271809,0.17310885
2.8103547,0.17854092
2.7936282,0.1766186
2.7770011,0.17754526
2.7604735,0.18058255
2.7440438,0.1800749
2.7277122,0.17995425
2.711477,0.18196969
2.6953394,0.18427242
2.6792972,0.18157871
2.663351,0.18362081
2.6474993,0.18183827
2.631742,0.18278895
2.6160786,0.18416116
2.6005085,0.18735954
2.5850313,0.18848129
2.5696461,0.19017535
2.5543516,0.19273645
2.5391486,0.19188717
2.524037,0.19346786
2.5090146,0.19535026
2.4940815,0.19418907
2.4792366,0.19432595
2.4644816,0.19843794
2.4498136,0.19651154
2.4352329,0.19858333
2.420739,0.1987217
2.4063315,0.20293133
2.3920097,0.20369068
2.377773,0.20414622
2.363621,0.20383134
2.3495533,0.20458785
2.3355696,0.2056572
2.3216686,0.20688859
2.3078513,0.20828466
2.294115,0.20842317
2.280461,0.20903376
2.2668889,0.210125
2.253397,0.21138306
2.2399855,0.21394634
2.2266536,0.21375875
2.213401,0.21602352
2.2002275,0.21665637
2.1871324,0.21363437
2.174115,0.21324232
2.1611753,0.21754524
2.1483126,0.21614175
2.1355262,0.21777615
2.1228166,0.22044925
2.1101818,0.22314665
2.0976226,0.22517559
2.0851378,0.22791779
2.0727284,0.23331408
2.060392,0.23400566
2.0481286,0.23061702
2.0359385,0.23521014
2.0238216,0.23697741
2.0117764,0.23532602
1.9998028,0.23673503
1.9879006,0.2357764
1.9760691,0.23498166
1.9643079,0.23287423
1.9526169,0.2320356
1.9409955,0.23080425
1.9294431,0.23293939
1.9179596,0.2328186
1.9065444,0.23688059
1.8951972,0.23676518
1.8839173,0.2385685
1.8727047,0.24232507
1.8615594,0.24475178
1.8504798,0.24975145
1.8394659,0.25322205
1.8285179,0.25752002
1.8176354,0.25506398
1.8068173,0.2549824
1.7960637,0.25489074
1.7853739,0.25478882
1.7747478,0.25447184
1.7641851,0.25475973
1.753685,0.25732103
1.7432475,0.2563606
1.7328722,0.2547505
1.7225585,0.2541665
1.7123064,0.25823456
1.7021154,0.25871336
1.6919845,0.26090664
1.6819143,0.26203674
1.6719041,0.26382297
1.6619537,0.26758868
1.6520622,0.27468902
1.6422291,0.27743992
1.6324553,0.2808816
1.6227394,0.28413063
1.6130813,0.28583184
1.6034806,0.28958255
1.5939372,0.29222816
1.5844505,0.2953537
1.5750202,0.29873693
1.5656462,0.29913318
1.5563277,0.29695547
1.5470649,0.29356667
1.5378572,0.2934343
1.5287046,0.29305205
1.5196058,0.29480675
1.5105615,0.29464763
1.5015709,0.29858953
1.4926344,0.30232453
1.4837507,0.30340004
1.4749194,0.3044777
1.466141,0.30778763
1.4574152,0.31237265
1.4487412,0.3107318
1.4401187,0.3093125
1.4315474,0.31065685
1.4230273,0.3120062
1.4145577,0.31669968
1.4061385,0.3193711
1.3977697,0.32544225
1.3894506,0.32399136
1.3811809,0.32408983
1.3729603,0.32153153
1.3647891,0.32079437
