energy,intensity
97.76732,0.004058207
92.828835,0.0042701894
88.18945,0.004474232
83.8307,0.0047372067
79.735245,0.004907617
75.88682,0.005084678
72.27017,0.0051883096
68.87099,0.0055182404
65.67586,0.0058973483
62.672165,0.0060466505
59.848106,0.006410897
57.19261,0.0066196197
54.69525,0.006895297
52.346306,0.007329648
50.136597,0.0077034226
48.057564,0.008112285
46.10113,0.008425029
44.25976,0.008726287
42.52636,0.008902558
40.894283,0.009506626
39.357292,0.009850187
37.909534,0.01037971
36.545517,0.010598108
35.260098,0.010531073
34.04844,0.010660401
32.906017,0.011207171
31.828575,0.012020331
30.812122,0.012593746
29.85292,0.013180954
28.947456,0.013630906
28.092442,0.014071639
27.284779,0.014062054
26.521572,0.014453014
25.800108,0.014983918
25.117828,0.015448789
24.472345,0.015782032
23.861408,0.016703824
23.282911,0.01741535
22.734882,0.017803187
22.215462,0.017957766
21.722916,0.018231135
21.255604,0.017999489
20.812004,0.018435515
20.390675,0.018656079
19.990267,0.01961138
19.609518,0.019955104
19.247244,0.020727124
18.902327,0.020817017
18.573725,0.021243993
18.260456,0.021469165
17.961601,0.021907294
17.676302,0.021890895
17.403744,0.022505123
17.143167,0.02297436
16.893862,0.023291891
16.655159,0.023582084
16.426428,0.024131645
16.207083,0.024099547
15.996571,0.024189562
15.794373,0.024499234
15.6,0.024757909
15.412999,0.025058288
15.232939,0.025974635
15.05942,0.02615329
14.892062,0.026788771
14.730514,0.026811242
14.574441,0.027397508
14.423531,0.0275834
14.277491,0.027585614
14.136047,0.027681718
13.998942,0.028082598
13.865933,0.028640216
13.73679,0.02861853
13.611302,0.028802287
13.48927,0.029439941
13.3705015,0.029810155
13.254824,0.029604316
13.142069,0.029664788
13.032082,0.030026669
12.924716,0.030023098
12.819836,0.030297061
12.717309,0.030627027
12.617017,0.031072056
12.518845,0.03119963
12.422684,0.031996846
12.328438,0.032182507
12.23601,0.03236622
12.145311,0.032368593
12.056257,0.032004956
11.968773,0.03208711
11.882783,0.032380465
11.798219,0.03344403
11.7150135,0.03318534
11.633108,0.033949945
11.552444,0.03412409
11.472969,0.034297142
11.394629,0.034150306
11.317378,0.034543924
11.241171,0.034584183
11.165965,0.03410125
11.091721,0.03341231
11.018401,0.033832498
10.945969,0.03359167
10.874393,0.033679124
10.803641,0.033899684
10.733684,0.034492977
10.664492,0.035534434
10.596042,0.036415488
10.528306,0.037374485
10.461264,0.03782239
10.394891,0.037050255
10.329167,0.03598451
10.264075,0.0364605
10.199594,0.036192294
10.135705,0.036635507
10.072394,0.037551153
10.0096445,0.037968054
9.947442,0.03732886
9.885775,0.037966006
9.824624,0.0376106
9.763982,0.03724881
9.703834,0.037592016
9.64417,0.03842736
9.584979,0.03794444
9.526253,0.03844534
9.467979,0.039295956
9.410151,0.039962165
9.3527565,0.039935462
9.295791,0.040102024
9.239244,0.039836235
9.183109,0.039961047
9.12738,0.040125426
9.07205,0.040129848
9.01711,0.0400923
8.962557,0.04074172
8.908382,0.040540844
8.854581,0.041279577
8.801149,0.04198429
8.74808,0.04248818
8.69537,0.04295466
8.643014,0.043088757
8.591007,0.042926677
8.539344,0.042377964
8.48802,0.042976655
8.437034,0.04241815
8.38638,0.042977624
8.336055,0.04402163
8.286055,0.044199564
8.236377,0.043804456
8.187016,0.04415732
8.13797,0.043798395
8.089236,0.044197008
8.04081,0.04482468
7.9926906,0.04582187
7.9448724,0.04641778
7.8973556,0.047341168
7.850135,0.047811076
7.80321,0.048657335
7.7565756,0.049137235
7.710231,0.048631486
7.664174,0.049208175
7.6184006,0.048693076
7.57291,0.04812197
7.5276995,0.048121385
7.482766,0.04904158
7.4381084,0.04860331
7.3937244,0.04938648
7.349611,0.049781777
7.3057675,0.05132384
7.2621903,0.05103144
7.218879,0.05108596
7.175831,0.051898755
7.133044,0.052057255
7.090517,0.051344633
7.0482473,0.052116506
7.0062337,0.053725492
6.9644732,0.054151982
6.9229665,0.054319195
6.881709,0.05512003
6.840701,0.05550357
6.79994,0.055675983
6.7594247,0.05627846
6.719154,0.057048358
6.679125,0.056737475
6.6393356,0.057022773
6.599786,0.056593757
6.560474,0.05698826
6.5213976,0.057329737
6.482556,0.05638414
6.443947,0.056440048
6.4055705,0.0573454
6.367422,0.05888725
6.3295035,0.059010424
6.291812,0.059825905
6.254346,0.059254795
6.217103,0.059375994
6.1800838,0.059555292
6.1432858,0.060385168
6.106708,0.060508866
6.0703483,0.061230432
6.034206,0.061657388
5.9982805,0.06232953
5.9625683,0.06258098
5.92707,0.062404085
5.891784,0.06222281
5.856708,0.06240936
5.8218417,0.0634072
5.787183,0.06328468
5.752732,0.06429525
5.718485,0.064997986
5.684444,0.06493981
5.650605,0.0650072
5.616968,0.065784596
5.583532,0.066373765
5.550295,0.06650938
5.5172563,0.066117406
5.4844136,0.06697709
5.4517684,0.066245176
5.419316,0.0669771
5.387058,0.06751305
5.3549924,0.06934215
5.3231173,0.06852877
5.2914324,0.070106424
5.2599363,0.06949007
5.228627,0.07004516
5.1975055,0.070394665
5.166569,0.07039423
5.135817,0.07017903
5.105248,0.0702434
5.0748606,0.07052082
5.044654,0.07144725
5.0146275,0.07129543
4.9847803,0.07347164
4.955111,0.07442485
4.9256177,0.07546058
4.8963003,0.07509617
4.867158,0.07576975
4.8381886,0.0744962
4.809392,0.07479116
4.7807665,0.076606974
4.7523127,0.07599528
4.724026,0.07745018
4.695909,0.08038984
4.667959,0.07900312
4.640177,0.07791011
4.612559,0.07845537
4.585105,0.07797423
4.557816,0.07907881
4.530688,0.07915134
4.5037217,0.081319414
4.4769163,0.08115705
4.450271,0.08139804
4.423784,0.079832114
4.3974533,0.07915339
4.3712807,0.07829742
4.345264,0.07976961
4.3194017,0.08125663
4.293693,0.083097085
4.2681384,0.08402024
4.2427354,0.08255366
4.217483,0.08175571
4.192381,0.080338605
4.16743,0.0818658
4.142626,0.083145335
4.11797,0.08576071
4.09346,0.086451724
4.069097,0.08795154
4.0448785,0.08668164
4.0208044,0.08566446
3.9968739,0.08663187
3.9730854,0.08824797
3.949438,0.08684442
3.925932,0.089585535
3.9025662,0.09068051
3.8793387,0.09047419
3.85625,0.0891315
3.8332987,0.09156082
3.8104842,0.0896299
3.7878044,0.08642562
3.7652605,0.08839052
3.742851,0.09047292
3.7205741,0.09023338
3.6984303,0.090871885
3.6764178,0.09457848
3.6545374,0.09494591
3.632786,0.0962145
3.6111646,0.096689954
3.5896719,0.10050781
3.5683074,0.099276766
3.5470698,0.09761767
3.525958,0.09624429
3.5049734,0.0974425
3.484112,0.095940284
3.4633756,0.09735398
3.4427624,0.098675616
3.4222722,0.09916025
3.4019039,0.098685935
3.3816562,0.10002891
3.3615294,0.10095207
3.3415227,0.10003424
3.321635,0.10008626
3.3018653,0.101455785
3.2822137,0.10150975
3.2626784,0.10300843
3.24326,0.10541761
3.2239568,0.108302735
3.2047691,0.109858155
3.1856952,0.110059716
3.1667347,0.11129235
3.1478868,0.107111
3.1291518,0.10659119
3.1105278,0.108397484
3.0920146,0.109164
3.0736122,0.10757158
3.0553188,0.109167
3.037134,0.108385086
3.0190578,0.10590503
3.0010896,0.10593376
2.9832275,0.107420586
2.9654722,0.10867634
2.9478228,0.11055957
2.930278,0.10948565
2.9128375,0.110764846
2.895501,0.10942034
2.878268,0.111590266
2.8611374,0.11238538
2.8441086,0.11241952
2.8271809,0.11386373
2.8103547,0.118036106
2.7936282,0.11588156
2.7770011,0.117098734
2.7604735,0.12030063
2.7440438,0.11678386
2.7277122,0.117083475
2.711477,0.11711452
2.6953394,0.12145533
2.6792972,0.11594459
2.663351,0.11882149
2.6474993,0.120493576
2.631742,0.12011055
2.6160786,0.12263521
2.6005085,0.124906346
2.5850313,0.122702576
2.5696461,0.12386141
2.5543516,0.1258832
2.5391486,0.12463365
2.524037,0.12710723
2.5090146,0.12917158
2.4940815,0.12819682
2.4792366,0.12911099
2.4644816,0.13106342
2.4498136,0.12932685
2.4352329,0.13010117
2.420739,0.13103025
2.4063315,0.13362667
2.3920097,0.13548999
2.377773,0.13492599
2.363621,0.13573384
2.3495533,0.13500014
2.3355696,0.1364307
2.3216686,0.13536958
2.3078513,0.13665237
2.294115,0.13667871
2.280461,0.13638178
2.2668889,0.13607638
2.253397,0.13640739
2.2399855,0.14030597
2.2266536,0.13935111
2.213401,0.14297606
2.2002275,0.1438321
2.1871324,0.14236756
2.174115,0.1397105
2.1611753,0.1425644
2.1483126,0.14189588
2.1355262,0.14121422
2.1228166,0.14240201
2.1101818,0.14583735
2.0976226,0.14740339
2.0851378,0.14898297
2.0727284,0.15373136
2.060392,0.15235938
2.0481286,0.15043327
2.0359385,0.15044169
2.0238216,0.151881
2.0117764,0.15260974
1.9998028,0.15515865
1.9879006,0.15334603
1.9760691,0.15408032
1.9643079,0.15222836
1.9526169,0.15034866
1.9409955,0.14937696
1.9294431,0.14989471
1.9179596,0.14870839
1.9065444,0.1526479
1.8951972,0.15183645
1.8839173,0.1525527
1.8727047,0.15715238
1.8615594,0.1586788
1.8504798,0.1631631
1.8394659,0.16769543
1.8285179,0.17207745
1.8176354,0.17010929
1.8068173,0.16750817
1.7960637,0.165679
1.7853739,0.16341487
1.7747478,0.1641886
1.7641851,0.16208239
1.753685,0.16450316
1.7432475,0.16382068
1.7328722,0.16270481
1.7225585,0.16241346
1.7123064,0.16720529
1.7021154,0.16671215
1.6919845,0.16856931
1.6819143,0.17195487
1.6719041,0.174071
1.6619537,0.17751798
1.6520622,0.18341926
1.6422291,0.18717244
1.6324553,0.1894059
1.6227394,0.18986824
1.6130813,0.19213125
1.6034806,0.19486777
1.5939372,0.1974022
1.5844505,0.20018928
1.5750202,0.20300269
1.5656462,0.20305781
1.5563277,0.20007141
1.5470649,0.19751164
1.5378572,0.1977492
1.5287046,0.19798246
1.5196058,0.1979724
1.5105615,0.1938661
1.5015709,0.19865641
1.4926344,0.20325363
1.4837507,0.20324619
1.4749194,0.2047095
1.466141,0.21039589
1.4574152,0.20891325
1.4487412,0.21141803
1.4401187,0.2109178
1.4315474,0.2093888
1.4230273,0.20987651
1.4145577,0.20984885
1.4061385,0.21136375
1.3977697,0.21522863
1.3894506,0.21651725
1.3811809,0.21939199
1.3729603,0.21964702
1.3647891,0.219631
