energy,intensity
97.76732,0.004916674
92.828835,0.0051664985
88.18945,0.005388853
83.8307,0.0057470594
79.735245,0.0060376897
75.88682,0.0063726055
72.27017,0.006636209
68.87099,0.006926816
65.67586,0.0074408376
62.672165,0.0078032515
59.848106,0.008195748
57.19261,0.008531813
54.69525,0.0089545855
52.346306,0.009432757
50.136597,0.010015173
48.057564,0.010524048
46.10113,0.011088883
44.25976,0.0115748495
42.52636,0.012021016
40.894283,0.012696232
39.357292,0.013395144
37.909534,0.013877951
36.545517,0.01420703
35.260098,0.014560084
34.04844,0.014928827
32.906017,0.01570108
31.828575,0.01650655
30.812122,0.017310504
29.85292,0.01808578
28.947456,0.018952731
28.092442,0.019529574
27.284779,0.019921241
26.521572,0.02061781
25.800108,0.021250688
25.117828,0.021987041
24.472345,0.022537276
23.861408,0.023647249
23.282911,0.024531297
22.734882,0.025202533
22.215462,0.025628248
21.722916,0.02635988
21.255604,0.026563343
20.812004,0.027321571
20.390675,0.027636651
19.990267,0.02882636
19.609518,0.029552823
19.247244,0.031071808
18.902327,0.03160035
18.573725,0.03202248
18.260456,0.032173894
17.961601,0.032830592
17.676302,0.032969944
17.403744,0.033736803
17.143167,0.034737065
16.893862,0.035206676
16.655159,0.036169372
16.426428,0.03709327
16.207083,0.03714693
15.996571,0.03736322
15.794373,0.03802557
15.6,0.038336325
15.412999,0.039178617
15.232939,0.040214173
15.05942,0.04084642
14.892062,0.041817803
14.730514,0.042325746
14.574441,0.04270421
14.423531,0.042622022
14.277491,0.043007094
14.136047,0.04318039
13.998942,0.043733068
13.865933,0.04417878
13.73679,0.044832163
13.611302,0.04540565
13.48927,0.04570868
13.3705015,0.04638644
13.254824,0.04599633
13.142069,0.046031564
13.032082,0.0467825
12.924716,0.046777558
12.819836,0.047075234
12.717309,0.04771188
12.617017,0.048609484
12.518845,0.048729468
12.422684,0.049954854
12.328438,0.050631452
12.23601,0.05047942
12.145311,0.050497405
12.056257,0.050448496
11.968773,0.050149392
11.882783,0.050542872
11.798219,0.051736623
11.7150135,0.052042056
11.633108,0.052658327
11.552444,0.05214539
11.472969,0.05212658
11.394629,0.05181535
11.317378,0.051751684
11.241171,0.051617693
11.165965,0.05137965
11.091721,0.050773602
11.018401,0.05084766
10.945969,0.05081901
10.874393,0.05135398
10.803641,0.05132035
10.733684,0.052162595
10.664492,0.05338682
10.596042,0.054794677
10.528306,0.05521623
10.461264,0.05570901
10.394891,0.055470526
10.329167,0.054768223
10.264075,0.05497395
10.199594,0.05418157
10.135705,0.05387785
10.072394,0.05493795
10.0096445,0.05499197
9.947442,0.05420355
9.885775,0.054872446
9.824624,0.054955117
9.763982,0.05462662
9.703834,0.05462824
9.64417,0.055870373
9.584979,0.055078197
9.526253,0.054998197
9.467979,0.055758823
9.410151,0.056487583
9.3527565,0.056406897
9.295791,0.056713484
9.239244,0.057178557
9.183109,0.05800287
9.12738,0.058317214
9.07205,0.057831842
9.01711,0.057700682
8.962557,0.05797081
8.908382,0.056732707
8.854581,0.05720053
8.801149,0.05796061
8.74808,0.058769085
8.69537,0.059752107
8.643014,0.05990387
8.591007,0.058743984
8.539344,0.058503717
8.48802,0.058900274
8.437034,0.059127025
8.38638,0.059614122
8.336055,0.05984326
8.286055,0.060204368
8.236377,0.06034693
8.187016,0.060533255
8.13797,0.06022837
8.089236,0.06072597
8.04081,0.061001323
7.9926906,0.061414033
7.9448724,0.062286716
7.8973556,0.06330558
7.850135,0.06373267
7.80321,0.064488426
7.7565756,0.06501667
7.710231,0.064512126
7.664174,0.065421276
7.6184006,0.0655282
7.57291,0.06529811
7.5276995,0.06467669
7.482766,0.06598763
7.4381084,0.06491839
7.3937244,0.065701224
7.349611,0.066046126
7.3057675,0.06743714
7.2621903,0.06729145
7.218879,0.0680475
7.175831,0.06845573
7.133044,0.068560734
7.090517,0.06810082
7.0482473,0.06887008
7.0062337,0.07042395
6.9644732,0.07100274
6.9229665,0.07195326
6.881709,0.073651776
6.840701,0.07473065
6.79994,0.07453742
6.7594247,0.07487671
6.719154,0.075001016
6.679125,0.07474332
6.6393356,0.07568378
6.599786,0.07520144
6.560474,0.075818196
6.5213976,0.07727535
6.482556,0.076449275
6.443947,0.07634349
6.4055705,0.07816218
6.367422,0.079258144
6.3295035,0.07881451
6.291812,0.08113454
6.254346,0.080458716
6.217103,0.08041474
6.1800838,0.08030852
6.1432858,0.0812627
6.106708,0.08079749
6.0703483,0.083077066
6.034206,0.08273168
5.9982805,0.08371177
5.9625683,0.08439596
5.92707,0.083920605
5.891784,0.0840532
5.856708,0.08610754
5.8218417,0.086061545
5.787183,0.08601192
5.752732,0.08671649
5.718485,0.08761703
5.684444,0.08673553
5.650605,0.08770506
5.616968,0.08926524
5.583532,0.09019022
5.550295,0.090403005
5.5172563,0.08949558
5.4844136,0.0902965
5.4517684,0.08917107
5.419316,0.09097889
5.387058,0.091051556
5.3549924,0.093428716
5.3231173,0.09289608
5.2914324,0.0946883
5.2599363,0.093182996
5.228627,0.093393534
5.1975055,0.09381295
5.166569,0.09430436
5.135817,0.09380786
5.105248,0.094227225
5.0748606,0.094003886
5.044654,0.095863216
5.0146275,0.09621985
4.9847803,0.098982625
4.955111,0.10104181
4.9256177,0.10149928
4.8963003,0.099509835
4.867158,0.099284515
4.8381886,0.097851366
4.809392,0.09889054
4.7807665,0.10191463
4.7523127,0.10137802
4.724026,0.103215635
4.695909,0.10600005
4.667959,0.10422186
4.640177,0.102261916
4.612559,0.102952994
4.585105,0.10269777
4.557816,0.103232935
4.530688,0.1044124
4.5037217,0.10600567
4.4769163,0.10688386
4.450271,0.107033946
4.423784,0.104389526
4.3974533,0.10501458
4.3712807,0.10547711
4.345264,0.10727926
4.3194017,0.10741689
4.293693,0.108398534
4.2681384,0.10819628
4.2427354,0.108758464
4.217483,0.1082897
4.192381,0.107638136
4.16743,0.109328784
4.142626,0.11077273
4.11797,0.11161244
4.09346,0.11414467
4.069097,0.11572101
4.0448785,0.1157851
4.0208044,0.11548437
3.9968739,0.117266655
3.9730854,0.117785886
3.949438,0.11839912
3.925932,0.120403685
3.9025662,0.12093838
3.8793387,0.12044493
3.85625,0.120223895
3.8332987,0.12170197
3.8104842,0.12223993
3.7878044,0.120381966
3.7652605,0.12129573
3.742851,0.124642946
3.7205741,0.12431506
3.6984303,0.12466639
3.6764178,0.12847652
3.6545374,0.12944457
3.632786,0.12911944
3.6111646,0.13039562
3.5896719,0.13441528
3.5683074,0.13348907
3.5470698,0.13234212
3.525958,0.13117664
3.5049734,0.13237667
3.484112,0.13139647
3.4633756,0.13249792
3.4427624,0.13318568
3.4222722,0.13387695
3.4019039,0.13318327
3.3816562,0.13430305
3.3615294,0.13543141
3.3415227,0.13537243
3.321635,0.13563602
3.3018653,0.13765857
3.2822137,0.13704368
3.2626784,0.1385324
3.24326,0.14081818
3.2239568,0.14199942
3.2047691,0.14307635
3.1856952,0.14438923
3.1667347,0.14548323
3.1478868,0.14116032
3.1291518,0.1430505
3.1105278,0.14647678
3.0920146,0.14594369
3.0736122,0.1446897
3.0553188,0.14626952
3.037134,0.1458294
3.0190578,0.14285143
3.0010896,0.14322242
2.9832275,0.14432356
2.9654722,0.14592281
2.9478228,0.14630346
2.930278,0.14556754
2.9128375,0.14843486
2.895501,0.14693947
2.878268,0.14895535
2.8611374,0.14883125
2.8441086,0.14882813
2.8271809,0.14881966
2.8103547,0.15397702
2.7936282,0.15320817
2.7770011,0.15347132
2.7604735,0.1576807
2.7440438,0.1557118
2.7277122,0.1573101
2.711477,0.157984
2.6953394,0.1606823
2.6792972,0.1564913
2.663351,0.15865603
2.6474993,0.15768465
2.631742,0.15821461
2.6160786,0.15985632
2.6005085,0.16402689
2.5850313,0.1640251
2.5696461,0.16571413
2.5543516,0.16755982
2.5391486,0.16727524
2.524037,0.1684207
2.5090146,0.17073236
2.4940815,0.17029785
2.4792366,0.17234339
2.4644816,0.17499691
2.4498136,0.17144708
2.4352329,0.17500997
2.420739,0.17545745
2.4063315,0.17680994
2.3920097,0.17817238
2.377773,0.17878073
2.363621,0.17939003
2.3495533,0.17984556
2.3355696,0.18076678
2.3216686,0.17997114
2.3078513,0.18278043
2.294115,0.1799154
2.280461,0.18162993
2.2668889,0.18079406
2.253397,0.18139282
2.2399855,0.18442532
2.2266536,0.18438736
2.213401,0.18844606
2.2002275,0.18858352
2.1871324,0.1878853
2.174115,0.18850888
2.1611753,0.1926637
2.1483126,0.19314076
2.1355262,0.18953332
2.1228166,0.18947
2.1101818,0.19645861
2.0976226,0.19642238
2.0851378,0.1981212
2.0727284,0.20439081
2.060392,0.20455658
2.0481286,0.20400736
2.0359385,0.20540734
2.0238216,0.20555994
2.0117764,0.20353988
1.9998028,0.2073021
1.9879006,0.20635004
1.9760691,0.20740168
1.9643079,0.20697877
1.9526169,0.20431045
1.9409955,0.2062825
1.9294431,0.20827079
1.9179596,0.20667627
1.9065444,0.20943825
1.8951972,0.21050055
1.8839173,0.21041088
1.8727047,0.21361086
1.8615594,0.21586561
1.8504798,0.22167405
1.8394659,0.22398897
1.8285179,0.22811191
1.8176354,0.22547977
1.8068173,0.22502
1.7960637,0.2243443
1.7853739,0.22121045
1.7747478,0.22294438
1.7641851,0.2181007
1.753685,0.2202353
1.7432475,0.21759391
1.7328722,0.21931604
1.7225585,0.21704343
1.7123064,0.2230111
1.7021154,0.2234925
1.6919845,0.22590438
1.6819143,0.22984922
1.6719041,0.23209465
1.6619537,0.237638
1.6520622,0.24367933
1.6422291,0.24447462
1.6324553,0.24616091
1.6227394,0.24920206
1.6130813,0.24844173
1.6034806,0.2528749
1.5939372,0.2589479
1.5844505,0.2618742
1.5750202,0.2650569
1.5656462,0.2631629
1.5563277,0.26333788
1.5470649,0.2613918
1.5378572,0.2636656
1.5287046,0.2635805
1.5196058,0.2675497
1.5105615,0.26241675
1.5015709,0.2700372
1.4926344,0.27238423
1.4837507,0.2745048
1.4749194,0.27196065
1.466141,0.27507588
1.4574152,0.2744791
1.4487412,0.27562088
1.4401187,0.27323443
1.4315474,0.2748704
1.4230273,0.27523953
1.4145577,0.2784286
1.4061385,0.2865555
1.3977697,0.29139042
1.3894506,0.29182762
1.3811809,0.2922596
1.3729603,0.28951067
1.3647891,0.28884804
