energy,intensity
97.76732,0.07676403
92.828835,0.08087918
88.18945,0.08503512
83.8307,0.0896992
79.735245,0.095053755
75.88682,0.10079344
72.27017,0.10640057
68.87099,0.11241174
65.67586,0.11850017
62.672165,0.1247129
59.848106,0.13086484
57.19261,0.13755086
54.69525,0.14465511
52.346306,0.15131281
50.136597,0.15893833
48.057564,0.16747749
46.10113,0.17612961
44.25976,0.18480356
42.52636,0.19305393
40.894283,0.20097189
39.357292,0.20782328
37.909534,0.2172168
36.545517,0.2254037
35.260098,0.2360527
34.04844,0.24586156
32.906017,0.2568264
31.828575,0.26675323
30.812122,0.2764964
29.85292,0.28518572
28.947456,0.29445767
28.092442,0.30347148
27.284779,0.3141058
26.521572,0.3247339
25.800108,0.33460325
25.117828,0.34467578
24.472345,0.3554298
23.861408,0.36373827
23.282911,0.37246376
22.734882,0.38156992
22.215462,0.3920615
21.722916,0.4024899
21.255604,0.4127063
20.812004,0.42213145
20.390675,0.4340612
19.990267,0.4449366
19.609518,0.4545392
19.247244,0.46150893
18.902327,0.46916136
18.573725,0.47738332
18.260456,0.48708534
17.961601,0.49672708
17.676302,0.5075398
17.403744,0.516908
17.143167,0.5253585
16.893862,0.53500384
16.655159,0.54110086
16.426428,0.54704297
16.207083,0.5557917
15.996571,0.56246984
15.794373,0.57114273
15.6,0.5804018
15.412999,0.5883865
15.232939,0.59429204
15.05942,0.6030698
14.892062,0.6115061
14.730514,0.6166339
14.574441,0.62224007
14.423531,0.6282466
14.277491,0.63304406
14.136047,0.63793886
13.998942,0.6477165
13.865933,0.65277684
13.73679,0.66187626
13.611302,0.6682986
13.48927,0.673267
13.3705015,0.67674744
13.254824,0.6835308
13.142069,0.68718356
13.032082,0.69209105
12.924716,0.6967158
12.819836,0.7025291
12.717309,0.70487875
12.617017,0.7104819
12.518845,0.7154729
12.422684,0.71937335
12.328438,0.72746617
12.23601,0.7347429
12.145311,0.74585384
12.056257,0.75232744
11.968773,0.7551551
11.882783,0.7538931
11.798219,0.7594198
11.7150135,0.7563777
11.633108,0.7607037
11.552444,0.76790214
11.472969,0.7711948
11.394629,0.77075744
11.317378,0.7793573
11.241171,0.7812794
11.165965,0.7871922
11.091721,0.7911512
11.018401,0.80287886
10.945969,0.8038103
10.874393,0.80789804
10.803641,0.8153413
10.733684,0.8268837
10.664492,0.82611597
10.596042,0.82637787
10.528306,0.8316945
10.461264,0.8367468
10.394891,0.83915347
10.329167,0.84322643
10.264075,0.8481492
10.199594,0.85336864
10.135705,0.84670323
10.072394,0.8524581
10.0096445,0.86041564
9.947442,0.8662343
9.885775,0.874431
9.824624,0.87987375
9.763982,0.87938464
9.703834,0.8773469
9.64417,0.8856379
9.584979,0.88655806
9.526253,0.8930915
9.467979,0.89981616
9.410151,0.90550023
9.3527565,0.9107461
9.295791,0.919767
9.239244,0.9236657
9.183109,0.92931205
9.12738,0.93864834
9.07205,0.9421304
9.01711,0.9562519
8.962557,0.9670992
8.908382,0.97053325
8.854581,0.98283166
8.801149,0.9921009
8.74808,0.9914743
8.69537,1.0009943
8.643014,1.0115979
8.591007,1.0124775
8.539344,1.0191135
8.48802,1.0251044
8.437034,1.0219975
8.38638,1.0243578
8.336055,1.0289729
8.286055,1.0372866
8.236377,1.0447782
8.187016,1.0514324
8.13797,1.0566976
8.089236,1.0598297
8.04081,1.0649474
7.9926906,1.0719044
7.9448724,1.0867708
7.8973556,1.0957018
7.850135,1.1013672
7.80321,1.1195378
7.7565756,1.1318897
7.710231,1.1330384
7.664174,1.1392784
7.6184006,1.1457417
7.57291,1.1476346
7.5276995,1.1552994
7.482766,1.1589352
7.4381084,1.1655025
7.3937244,1.1809511
7.349611,1.185271
7.3057675,1.1905936
7.2621903,1.2169497
7.218879,1.2325053
7.175831,1.2338234
7.133044,1.246318
7.090517,1.2474391
7.0482473,1.2406924
7.0062337,1.2427391
6.9644732,1.2526951
6.9229665,1.2572666
6.881709,1.2698728
6.840701,1.2785474
6.79994,1.2906998
6.7594247,1.3008012
6.719154,1.3055694
6.679125,1.3144817
6.6393356,1.3238916
6.599786,1.3349082
6.560474,1.3373688
6.5213976,1.3451596
6.482556,1.3545645
6.443947,1.3545613
6.4055705,1.3615421
6.367422,1.3763183
6.3295035,1.3866303
6.291812,1.3923957
6.254346,1.4002721
6.217103,1.4093617
6.1800838,1.4048703
6.1432858,1.4213287
6.106708,1.4265102
6.0703483,1.4324212
6.034206,1.4299217
5.9982805,1.443574
5.9625683,1.4388142
5.92707,1.444489
5.891784,1.4509199
5.856708,1.4591132
5.8218417,1.4536226
5.787183,1.4540408
5.752732,1.4627488
5.718485,1.491078
5.684444,1.4938712
5.650605,1.5195351
5.616968,1.5332923
5.583532,1.5380493
5.550295,1.5221224
5.5172563,1.5264957
5.4844136,1.5178822
5.4517684,1.5275047
5.419316,1.5471108
5.387058,1.5542165
5.3549924,1.567594
5.3231173,1.5879017
5.2914324,1.5781841
5.2599363,1.5669115
5.228627,1.5740707
5.1975055,1.578183
5.166569,1.5884765
5.135817,1.5974219
5.105248,1.6118265
5.0748606,1.6168959
5.044654,1.6271536
5.0146275,1.6226957
4.9847803,1.6356188
4.955111,1.6433594
4.9256177,1.6599855
4.8963003,1.6708152
4.867158,1.6844027
4.8381886,1.6911838
4.809392,1.6958704
4.7807665,1.6966012
4.7523127,1.7003372
4.724026,1.7215939
4.695909,1.7384012
4.667959,1.7562824
4.640177,1.7680504
4.612559,1.7805275
4.585105,1.7762907
4.557816,1.7786357
4.530688,1.7937762
4.5037217,1.8032258
4.4769163,1.8062313
4.450271,1.8304355
4.423784,1.8371246
4.3974533,1.8335823
4.3712807,1.8352516
4.345264,1.8572775
4.3194017,1.8515745
4.293693,1.8562298
4.2681384,1.8751752
4.2427354,1.8963366
4.217483,1.9101031
4.192381,1.9243132
4.16743,1.9487377
4.142626,1.9530386
4.11797,1.9622616
4.09346,1.9651346
4.069097,2.0008307
4.0448785,2.0005944
4.0208044,2.0035365
3.9968739,2.00426
3.9730854,2.0202842
3.949438,2.0176613
3.925932,2.0267801
3.9025662,2.0348186
3.8793387,2.0425065
3.85625,2.043429
3.8332987,2.0522516
3.8104842,2.066446
3.7878044,2.0849583
3.7652605,2.1036174
3.742851,2.1162121
3.7205741,2.1238055
3.6984303,2.136914
3.6764178,2.1809382
3.6545374,2.1832585
3.632786,2.2027318
3.6111646,2.2094812
3.5896719,2.2194715
3.5683074,2.1940675
3.5470698,2.2076137
3.525958,2.2377315
3.5049734,2.2498853
3.484112,2.255848
3.4633756,2.269774
3.4427624,2.2770324
3.4222722,2.2698567
3.4019039,2.2796025
3.3816562,2.3044252
3.3615294,2.3156288
3.3415227,2.3342774
3.321635,2.3530662
3.3018653,2.3733172
3.2822137,2.3773427
3.2626784,2.3946955
3.24326,2.4058964
3.2239568,2.4162443
3.2047691,2.4347923
3.1856952,2.4712684
3.1667347,2.4810164
3.1478868,2.4898696
3.1291518,2.523355
3.1105278,2.5239792
3.0920146,2.5437918
3.0736122,2.5585492
3.0553188,2.589565
3.037134,2.5777946
3.0190578,2.5917845
3.0010896,2.5995536
2.9832275,2.6117084
2.9654722,2.629796
2.9478228,2.6435692
2.930278,2.650966
2.9128375,2.6648428
2.895501,2.676783
2.878268,2.6837208
2.8611374,2.7241712
2.8441086,2.7466137
2.8271809,2.7496934
2.8103547,2.774948
2.7936282,2.793123
2.7770011,2.7910066
2.7604735,2.8035047
2.7440438,2.814465
2.7277122,2.841439
2.711477,2.8659565
2.6953394,2.8804193
2.6792972,2.9009202
2.663351,2.9046469
2.6474993,2.9253318
2.631742,2.9246233
2.6160786,2.9371343
2.6005085,2.9530427
2.5850313,2.9707236
2.5696461,2.9845512
2.5543516,3.004129
2.5391486,3.0284119
2.524037,3.0309968
2.5090146,3.0653632
2.4940815,3.068566
2.4792366,3.0740433
2.4644816,3.0841918
2.4498136,3.122235
2.4352329,3.127203
2.420739,3.136921
2.4063315,3.151475
2.3920097,3.2013302
2.377773,3.2204983
2.363621,3.2526932
2.3495533,3.3117554
2.3355696,3.3471406
2.3216686,3.3315005
2.3078513,3.3703384
2.294115,3.3860843
2.280461,3.356649
2.2668889,3.3600764
2.253397,3.3724551
2.2399855,3.3816173
2.2266536,3.388158
2.213401,3.3946552
2.2002275,3.405733
2.1871324,3.4201438
2.174115,3.4352741
2.1611753,3.4578595
2.1483126,3.4866815
2.1355262,3.5061965
2.1228166,3.5627887
2.1101818,3.5910084
2.0976226,3.6513088
2.0851378,3.6885047
2.0727284,3.7218068
2.060392,3.7067065
2.0481286,3.722514
2.0359385,3.7033997
2.0238216,3.7104924
2.0117764,3.7334304
1.9998028,3.7470632
1.9879006,3.7892373
1.9760691,3.798687
1.9643079,3.8451066
1.9526169,3.8696175
1.9409955,3.9204903
1.9294431,3.918354
1.9179596,3.950908
1.9065444,3.9638908
1.8951972,3.9891574
1.8839173,4.044672
1.8727047,4.103036
1.8615594,4.1338468
1.8504798,4.1656656
1.8394659,4.204039
1.8285179,4.1942387
1.8176354,4.223348
1.8068173,4.251048
1.7960637,4.2837825
1.7853739,4.360715
1.7747478,4.374541
1.7641851,4.392495
1.753685,4.401391
1.7432475,4.4127374
1.7328722,4.4056106
1.7225585,4.4168024
1.7123064,4.4279695
1.7021154,4.4800963
1.6919845,4.5232415
1.6819143,4.5382266
1.6719041,4.575829
1.6619537,4.597104
1.6520622,4.6175914
1.6422291,4.6328497
1.6324553,4.6374407
1.6227394,4.667893
1.6130813,4.6877327
1.6034806,4.7112684
1.5939372,4.7732124
1.5844505,4.8137155
1.5750202,4.8628373
1.5656462,4.890096
1.5563277,4.895097
1.5470649,4.901859
1.5378572,4.916087
1.5287046,4.960732
1.5196058,4.989479
1.5105615,4.9991484
1.5015709,5.0261765
1.4926344,5.0514
1.4837507,5.046383
1.4749194,5.025359
1.466141,5.024719
1.4574152,4.984002
1.4487412,4.9646883
1.4401187,4.929826
1.4315474,4.9197493
1.4230273,4.8869066
1.4145577,4.855549
1.4061385,4.8195066
1.3977697,4.7797384
1.3894506,4.7665176
1.3811809,4.770856
1.3729603,4.7666063
1.3647891,4.7653275
