energy,intensity
97.76732,0.079291135
92.828835,0.082867496
88.18945,0.0868314
83.8307,0.09153687
79.735245,0.09658481
75.88682,0.102134064
72.27017,0.10786859
68.87099,0.11365678
65.67586,0.11942959
62.672165,0.12552455
59.848106,0.13132624
57.19261,0.1378304
54.69525,0.1442831
52.346306,0.15072979
50.136597,0.1576339
48.057564,0.16584447
46.10113,0.17376524
44.25976,0.1818811
42.52636,0.18987569
40.894283,0.19763127
39.357292,0.2045368
37.909534,0.21273133
36.545517,0.22067133
35.260098,0.23011737
34.04844,0.23950157
32.906017,0.24940646
31.828575,0.25848848
30.812122,0.26753452
29.85292,0.27544913
28.947456,0.28416547
28.092442,0.29250386
27.284779,0.30196133
26.521572,0.3129523
25.800108,0.32209796
25.117828,0.33165714
24.472345,0.3428398
23.861408,0.35021687
23.282911,0.35866883
22.734882,0.36750636
22.215462,0.37760374
21.722916,0.3876374
21.255604,0.39670676
20.812004,0.4057909
20.390675,0.41752553
19.990267,0.42683378
19.609518,0.43549198
19.247244,0.440442
18.902327,0.4487864
18.573725,0.45610023
18.260456,0.46320862
17.961601,0.4708348
17.676302,0.47909188
17.403744,0.4868454
17.143167,0.4960259
16.893862,0.5045502
16.655159,0.50968724
16.426428,0.516165
16.207083,0.5235991
15.996571,0.5286726
15.794373,0.5360847
15.6,0.54201883
15.412999,0.5491608
15.232939,0.55412555
15.05942,0.56012434
14.892062,0.56661415
14.730514,0.5680925
14.574441,0.56958896
14.423531,0.57232416
14.277491,0.57583696
14.136047,0.58149594
13.998942,0.5898903
13.865933,0.5936622
13.73679,0.60104203
13.611302,0.6075442
13.48927,0.6106701
13.3705015,0.61370325
13.254824,0.61873025
13.142069,0.62414944
13.032082,0.6265175
12.924716,0.6283486
12.819836,0.63416934
12.717309,0.63676786
12.617017,0.6412536
12.518845,0.6468627
12.422684,0.65163594
12.328438,0.66133285
12.23601,0.66917896
12.145311,0.68171495
12.056257,0.6872328
11.968773,0.6926203
11.882783,0.6911501
11.798219,0.6981981
11.7150135,0.6947211
11.633108,0.6963643
11.552444,0.703491
11.472969,0.7083643
11.394629,0.70940804
11.317378,0.71938705
11.241171,0.72439325
11.165965,0.72627854
11.091721,0.7348088
11.018401,0.74655724
10.945969,0.7467176
10.874393,0.7517661
10.803641,0.7597834
10.733684,0.77150536
10.664492,0.7709236
10.596042,0.7743949
10.528306,0.77827287
10.461264,0.78326046
10.394891,0.7835081
10.329167,0.7842724
10.264075,0.78811324
10.199594,0.7898184
10.135705,0.7889181
10.072394,0.79676265
10.0096445,0.8048067
9.947442,0.8089625
9.885775,0.8141559
9.824624,0.8162648
9.763982,0.81552947
9.703834,0.81594145
9.64417,0.8221949
9.584979,0.82423973
9.526253,0.8281004
9.467979,0.83381116
9.410151,0.8410975
9.3527565,0.85014373
9.295791,0.856448
9.239244,0.8612178
9.183109,0.8636335
9.12738,0.86842906
9.07205,0.87212354
9.01711,0.88049954
8.962557,0.8905614
8.908382,0.8946721
8.854581,0.90306264
8.801149,0.90771943
8.74808,0.9080759
8.69537,0.9152519
8.643014,0.9229821
8.591007,0.92349434
8.539344,0.9295923
8.48802,0.93778145
8.437034,0.93621385
8.38638,0.938056
8.336055,0.9442421
8.286055,0.95134306
8.236377,0.9540814
8.187016,0.95894635
8.13797,0.9649042
8.089236,0.9669444
8.04081,0.96752626
7.9926906,0.97571504
7.9448724,0.98981935
7.8973556,0.9974311
7.850135,1.0025051
7.80321,1.0172875
7.7565756,1.0284625
7.710231,1.0327594
7.664174,1.041241
7.6184006,1.0505496
7.57291,1.0440022
7.5276995,1.0516238
7.482766,1.0546368
7.4381084,1.059015
7.3937244,1.0716622
7.349611,1.0802696
7.3057675,1.0841663
7.2621903,1.1082828
7.218879,1.1195626
7.175831,1.123646
7.133044,1.1356837
7.090517,1.1336815
7.0482473,1.1295519
7.0062337,1.1286503
6.9644732,1.1391741
6.9229665,1.1443245
6.881709,1.1537193
6.840701,1.1614854
6.79994,1.172936
6.7594247,1.1773864
6.719154,1.1794682
6.679125,1.1839257
6.6393356,1.1953988
6.599786,1.2060858
6.560474,1.210433
6.5213976,1.214566
6.482556,1.2261031
6.443947,1.2264576
6.4055705,1.2315366
6.367422,1.2480447
6.3295035,1.2594248
6.291812,1.2658145
6.254346,1.2717707
6.217103,1.2817267
6.1800838,1.2762353
6.1432858,1.2942891
6.106708,1.2972817
6.0703483,1.3052915
6.034206,1.3013079
5.9982805,1.312494
5.9625683,1.313043
5.92707,1.3231137
5.891784,1.3285711
5.856708,1.3367763
5.8218417,1.3407878
5.787183,1.3422884
5.752732,1.3495691
5.718485,1.3734083
5.684444,1.3821442
5.650605,1.4012234
5.616968,1.4173771
5.583532,1.4203987
5.550295,1.409266
5.5172563,1.410856
5.4844136,1.4057901
5.4517684,1.416074
5.419316,1.4390355
5.387058,1.4411776
5.3549924,1.4552352
5.3231173,1.4639492
5.2914324,1.4576092
5.2599363,1.4453385
5.228627,1.4662231
5.1975055,1.4705287
5.166569,1.4787714
5.135817,1.4890406
5.105248,1.505643
5.0748606,1.5023444
5.044654,1.513933
5.0146275,1.511985
4.9847803,1.5154985
4.955111,1.5175334
4.9256177,1.5257348
4.8963003,1.5384326
4.867158,1.5470468
4.8381886,1.5560094
4.809392,1.5595846
4.7807665,1.5631468
4.7523127,1.5734237
4.724026,1.5957661
4.695909,1.6158434
4.667959,1.6320566
4.640177,1.645587
4.612559,1.6510286
4.585105,1.6476017
4.557816,1.6447119
4.530688,1.6670702
4.5037217,1.672534
4.4769163,1.6750816
4.450271,1.6962143
4.423784,1.7050564
4.3974533,1.7023764
4.3712807,1.7082472
4.345264,1.7285087
4.3194017,1.7250631
4.293693,1.7262532
4.2681384,1.7372696
4.2427354,1.765826
4.217483,1.7791557
4.192381,1.7849556
4.16743,1.8022683
4.142626,1.8116562
4.11797,1.8150917
4.09346,1.8188591
4.069097,1.8679655
4.0448785,1.8723233
4.0208044,1.8763046
3.9968739,1.8711755
3.9730854,1.8842083
3.949438,1.8712028
3.925932,1.8787047
3.9025662,1.8862289
3.8793387,1.8919033
3.85625,1.8941858
3.8332987,1.9093182
3.8104842,1.9192244
3.7878044,1.9414591
3.7652605,1.9530833
3.742851,1.967495
3.7205741,1.9777124
3.6984303,1.9860172
3.6764178,2.0184646
3.6545374,2.027766
3.632786,2.0339065
3.6111646,2.0412548
3.5896719,2.055501
3.5683074,2.0360389
3.5470698,2.0441322
3.525958,2.074508
3.5049734,2.0964649
3.484112,2.096921
3.4633756,2.112413
3.4427624,2.1153517
3.4222722,2.1101813
3.4019039,2.1189704
3.3816562,2.143262
3.3615294,2.1578238
3.3415227,2.1681335
3.321635,2.1728015
3.3018653,2.1963751
3.2822137,2.1980128
3.2626784,2.2062736
3.24326,2.223964
3.2239568,2.237731
3.2047691,2.2547565
3.1856952,2.2842238
3.1667347,2.3052433
3.1478868,2.3148906
3.1291518,2.3538308
3.1105278,2.3483007
3.0920146,2.366591
3.0736122,2.381233
3.0553188,2.4173713
3.037134,2.4031348
3.0190578,2.4319644
3.0010896,2.433934
2.9832275,2.449482
2.9654722,2.4631672
2.9478228,2.4813662
2.930278,2.4788642
2.9128375,2.495702
2.895501,2.515162
2.878268,2.5100236
2.8611374,2.535211
2.8441086,2.5682752
2.8271809,2.567203
2.8103547,2.581022
2.7936282,2.5954354
2.7770011,2.581144
2.7604735,2.6102862
2.7440438,2.613204
2.7277122,2.6506948
2.711477,2.6751425
2.6953394,2.686845
2.6792972,2.699678
2.663351,2.7060196
2.6474993,2.7150855
2.631742,2.7180884
2.6160786,2.7265844
2.6005085,2.7283795
2.5850313,2.734595
2.5696461,2.7470088
2.5543516,2.7663016
2.5391486,2.7903056
2.524037,2.7960715
2.5090146,2.8255556
2.4940815,2.8290708
2.4792366,2.8243213
2.4644816,2.828257
2.4498136,2.8564625
2.4352329,2.8580487
2.420739,2.8697577
2.4063315,2.8990185
2.3920097,2.9443247
2.377773,2.9485068
2.363621,2.9778438
2.3495533,3.046395
2.3355696,3.0609012
2.3216686,3.052937
2.3078513,3.0951447
2.294115,3.1136773
2.280461,3.0921705
2.2668889,3.0946562
2.253397,3.1009302
2.2399855,3.1065202
2.2266536,3.094443
2.213401,3.088677
2.2002275,3.1157572
2.1871324,3.1197937
2.174115,3.1230981
2.1611753,3.1451592
2.1483126,3.1599317
2.1355262,3.1706846
2.1228166,3.2225308
2.1101818,3.256288
2.0976226,3.307656
2.0851378,3.3427944
2.0727284,3.3698196
2.060392,3.3582547
2.0481286,3.3627515
2.0359385,3.3543315
2.0238216,3.3650792
2.0117764,3.393174
1.9998028,3.3996818
1.9879006,3.4361215
1.9760691,3.453017
1.9643079,3.4773915
1.9526169,3.4989562
1.9409955,3.5393734
1.9294431,3.538721
1.9179596,3.5712745
1.9065444,3.5644524
1.8951972,3.5896287
1.8839173,3.633493
1.8727047,3.6847382
1.8615594,3.7067997
1.8504798,3.7274232
1.8394659,3.750531
1.8285179,3.7403991
1.8176354,3.7683911
1.8068173,3.7804966
1.7960637,3.8063686
1.7853739,3.8747444
1.7747478,3.8840222
1.7641851,3.9015107
1.753685,3.9008374
1.7432475,3.9175239
1.7328722,3.8914971
1.7225585,3.9198594
1.7123064,3.9178665
1.7021154,3.9780388
1.6919845,4.021613
1.6819143,4.0137205
1.6719041,4.049922
1.6619537,4.063676
1.6520622,4.089766
1.6422291,4.1045194
1.6324553,4.095263
1.6227394,4.113513
1.6130813,4.139944
1.6034806,4.157481
1.5939372,4.196962
1.5844505,4.2587805
1.5750202,4.279666
1.5656462,4.293223
1.5563277,4.298383
1.5470649,4.3006344
1.5378572,4.2951975
1.5287046,4.3751035
1.5196058,4.398431
1.5105615,4.42669
1.5015709,4.433837
1.4926344,4.4438305
1.4837507,4.438113
1.4749194,4.4341416
1.466141,4.422031
1.4574152,4.387677
1.4487412,4.3788366
1.4401187,4.3394575
1.4315474,4.3471656
1.4230273,4.309873
1.4145577,4.309993
1.4061385,4.29549
1.3977697,4.2619424
1.3894506,4.2644486
1.3811809,4.2647276
1.3729603,4.263799
1.3647891,4.2499266
