energy,intensity
97.76732,0.07933573
92.828835,0.08402605
88.18945,0.088710085
83.8307,0.09347855
79.735245,0.099118374
75.88682,0.105102494
72.27017,0.11084483
68.87099,0.116400085
65.67586,0.122217834
62.672165,0.1276348
59.848106,0.13307467
57.19261,0.13887227
54.69525,0.14502713
52.346306,0.1510352
50.136597,0.15699619
48.057564,0.16490698
46.10113,0.1719368
44.25976,0.17928705
42.52636,0.18673158
40.894283,0.19333103
39.357292,0.19977325
37.909534,0.20828429
36.545517,0.21621732
35.260098,0.22541861
34.04844,0.23412335
32.906017,0.24344404
31.828575,0.25186762
30.812122,0.26093107
29.85292,0.26907164
28.947456,0.2777391
28.092442,0.28629577
27.284779,0.29711416
26.521572,0.30823967
25.800108,0.3194504
25.117828,0.33021066
24.472345,0.34171146
23.861408,0.35027775
23.282911,0.36104077
22.734882,0.37223685
22.215462,0.3827719
21.722916,0.39426082
21.255604,0.40682608
20.812004,0.41773206
20.390675,0.43021235
19.990267,0.43992013
19.609518,0.45135227
19.247244,0.45863953
18.902327,0.4685462
18.573725,0.47777456
18.260456,0.4883588
17.961601,0.4997209
17.676302,0.51132196
17.403744,0.52241945
17.143167,0.533497
16.893862,0.54377866
16.655159,0.55104864
16.426428,0.55854475
16.207083,0.5678078
15.996571,0.5744623
15.794373,0.5836569
15.6,0.5899043
15.412999,0.59668434
15.232939,0.60326034
15.05942,0.6112728
14.892062,0.6193134
14.730514,0.6250201
14.574441,0.63131434
14.423531,0.6383227
14.277491,0.6448519
14.136047,0.6515099
13.998942,0.65955174
13.865933,0.66587853
13.73679,0.6751009
13.611302,0.6816453
13.48927,0.6878119
13.3705015,0.69153035
13.254824,0.6969076
13.142069,0.70277625
13.032082,0.70725775
12.924716,0.7097596
12.819836,0.7156795
12.717309,0.7207637
12.617017,0.7241892
12.518845,0.7292878
12.422684,0.73516715
12.328438,0.7447952
12.23601,0.7544595
12.145311,0.7681111
12.056257,0.77426684
11.968773,0.7798048
11.882783,0.78006643
11.798219,0.7889835
11.7150135,0.7860273
11.633108,0.79056215
11.552444,0.7963336
11.472969,0.80108994
11.394629,0.8026438
11.317378,0.8115897
11.241171,0.8143767
11.165965,0.817519
11.091721,0.82338417
11.018401,0.8353264
10.945969,0.83567584
10.874393,0.8413099
10.803641,0.85058624
10.733684,0.8593796
10.664492,0.86141205
10.596042,0.86478215
10.528306,0.86827534
10.461264,0.8760626
10.394891,0.87872016
10.329167,0.88332653
10.264075,0.88397247
10.199594,0.88642615
10.135705,0.88269347
10.072394,0.88838595
10.0096445,0.8986014
9.947442,0.9046588
9.885775,0.91456544
9.824624,0.9190744
9.763982,0.9154054
9.703834,0.9164365
9.64417,0.9243666
9.584979,0.92719394
9.526253,0.9330624
9.467979,0.93895864
9.410151,0.9431845
9.3527565,0.9525464
9.295791,0.9591654
9.239244,0.9601594
9.183109,0.96571237
9.12738,0.9751116
9.07205,0.97657317
9.01711,0.9844574
8.962557,0.9943414
8.908382,0.99630964
8.854581,1.0071232
8.801149,1.0132375
8.74808,1.0135696
8.69537,1.0217192
8.643014,1.0268996
8.591007,1.0263493
8.539344,1.0308568
8.48802,1.0372614
8.437034,1.0352614
8.38638,1.0375285
8.336055,1.0436177
8.286055,1.050266
8.236377,1.055189
8.187016,1.0617285
8.13797,1.0686631
8.089236,1.076179
8.04081,1.0821183
7.9926906,1.09427
7.9448724,1.1068926
7.8973556,1.1124485
7.850135,1.1198806
7.80321,1.139466
7.7565756,1.1534369
7.710231,1.1571656
7.664174,1.1694291
7.6184006,1.1785538
7.57291,1.1806436
7.5276995,1.1877344
7.482766,1.1937013
7.4381084,1.2020404
7.3937244,1.2173152
7.349611,1.2165143
7.3057675,1.2194384
7.2621903,1.2473686
7.218879,1.2604893
7.175831,1.260355
7.133044,1.2787138
7.090517,1.2738798
7.0482473,1.2699726
7.0062337,1.2726095
6.9644732,1.2831619
6.9229665,1.285607
6.881709,1.2977493
6.840701,1.3046792
6.79994,1.3135684
6.7594247,1.3186468
6.719154,1.3226566
6.679125,1.3288429
6.6393356,1.3411844
6.599786,1.3564886
6.560474,1.3624017
6.5213976,1.364548
6.482556,1.3693613
6.443947,1.3683189
6.4055705,1.3733402
6.367422,1.392752
6.3295035,1.4054582
6.291812,1.4122611
6.254346,1.42258
6.217103,1.4325044
6.1800838,1.4312084
6.1432858,1.4494807
6.106708,1.4553066
6.0703483,1.464742
6.034206,1.4677347
5.9982805,1.4813712
5.9625683,1.4802502
5.92707,1.4849474
5.891784,1.4990207
5.856708,1.5045244
5.8218417,1.5065451
5.787183,1.5065271
5.752732,1.511507
5.718485,1.5365703
5.684444,1.540403
5.650605,1.5583725
5.616968,1.5754669
5.583532,1.5820383
5.550295,1.5653272
5.5172563,1.567852
5.4844136,1.5655811
5.4517684,1.5768218
5.419316,1.5999414
5.387058,1.605745
5.3549924,1.6248589
5.3231173,1.6359537
5.2914324,1.627897
5.2599363,1.6152642
5.228627,1.6302179
5.1975055,1.6307518
5.166569,1.6360155
5.135817,1.6432648
5.105248,1.6531044
5.0748606,1.6578481
5.044654,1.6660465
5.0146275,1.6647196
4.9847803,1.6679814
4.955111,1.6641836
4.9256177,1.6741482
4.8963003,1.6823915
4.867158,1.6954508
4.8381886,1.7071047
4.809392,1.712189
4.7807665,1.712713
4.7523127,1.7137932
4.724026,1.7289774
4.695909,1.7510903
4.667959,1.7681134
4.640177,1.7793261
4.612559,1.7871443
4.585105,1.7826303
4.557816,1.7722582
4.530688,1.7860779
4.5037217,1.7941902
4.4769163,1.7961681
4.450271,1.8183525
4.423784,1.8236545
4.3974533,1.8177189
4.3712807,1.8159683
4.345264,1.8428955
4.3194017,1.8340784
4.293693,1.82949
4.2681384,1.8414652
4.2427354,1.8689327
4.217483,1.8615148
4.192381,1.8705809
4.16743,1.8953812
4.142626,1.902169
4.11797,1.9149697
4.09346,1.9211104
4.069097,1.9501137
4.0448785,1.9546038
4.0208044,1.9572704
3.9968739,1.9573532
3.9730854,1.9679754
3.949438,1.9598875
3.925932,1.9697711
3.9025662,1.9815645
3.8793387,1.988559
3.85625,1.9887819
3.8332987,2.0006895
3.8104842,2.0130496
3.7878044,2.0254865
3.7652605,2.0352979
3.742851,2.0498137
3.7205741,2.0429463
3.6984303,2.0610728
3.6764178,2.1014807
3.6545374,2.1116765
3.632786,2.1243205
3.6111646,2.1310027
3.5896719,2.1376889
3.5683074,2.116275
3.5470698,2.1285362
3.525958,2.1590052
3.5049734,2.1690283
3.484112,2.163662
3.4633756,2.1707416
3.4427624,2.172341
3.4222722,2.1662376
3.4019039,2.184761
3.3816562,2.2038593
3.3615294,2.216622
3.3415227,2.2377224
3.321635,2.2445576
3.3018653,2.2645988
3.2822137,2.2688594
3.2626784,2.2824442
3.24326,2.287596
3.2239568,2.2990384
3.2047691,2.3173382
3.1856952,2.3499174
3.1667347,2.352055
3.1478868,2.3670614
3.1291518,2.4012048
3.1105278,2.4048352
3.0920146,2.4084234
3.0736122,2.4270988
3.0553188,2.4606578
3.037134,2.4481153
3.0190578,2.4743264
3.0010896,2.4780028
2.9832275,2.4884553
2.9654722,2.4989436
2.9478228,2.506017
2.930278,2.5101101
2.9128375,2.5311265
2.895501,2.5472856
2.878268,2.5388048
2.8611374,2.5707679
2.8441086,2.5968912
2.8271809,2.5970182
2.8103547,2.6229098
2.7936282,2.6443372
2.7770011,2.6292918
2.7604735,2.6476667
2.7440438,2.6534562
2.7277122,2.679999
2.711477,2.704622
2.6953394,2.715963
2.6792972,2.714324
2.663351,2.7349405
2.6474993,2.7452774
2.631742,2.7468042
2.6160786,2.7610283
2.6005085,2.7719705
2.5850313,2.7902539
2.5696461,2.7979105
2.5543516,2.8158014
2.5391486,2.8395295
2.524037,2.8455896
2.5090146,2.8730533
2.4940815,2.8716092
2.4792366,2.8823552
2.4644816,2.9007914
2.4498136,2.9377363
2.4352329,2.939809
2.420739,2.9610133
2.4063315,2.9696822
2.3920097,2.9983993
2.377773,3.0096288
2.363621,3.035027
2.3495533,3.1057763
2.3355696,3.1243718
2.3216686,3.1242993
2.3078513,3.149932
2.294115,3.1643577
2.280461,3.1495268
2.2668889,3.181206
2.253397,3.188644
2.2399855,3.1993005
2.2266536,3.1975703
2.213401,3.20227
2.2002275,3.2161593
2.1871324,3.2427247
2.174115,3.238744
2.1611753,3.263515
2.1483126,3.2634366
2.1355262,3.289781
2.1228166,3.3437085
2.1101818,3.3761268
2.0976226,3.433754
2.0851378,3.4612834
2.0727284,3.4862132
2.060392,3.4711132
2.0481286,3.4791245
2.0359385,3.4735436
2.0238216,3.482132
2.0117764,3.5138168
1.9998028,3.5181403
1.9879006,3.54944
1.9760691,3.5648084
1.9643079,3.5987306
1.9526169,3.608368
1.9409955,3.6524348
1.9294431,3.6471877
1.9179596,3.6705403
1.9065444,3.6955657
1.8951972,3.7100239
1.8839173,3.7607815
1.8727047,3.8112361
1.8615594,3.8395195
1.8504798,3.8672206
1.8394659,3.910128
1.8285179,3.9096951
1.8176354,3.953092
1.8068173,3.986414
1.7960637,4.0118995
1.7853739,4.0692954
1.7747478,4.064998
1.7641851,4.0778036
1.753685,4.0931034
1.7432475,4.099269
1.7328722,4.1053615
1.7225585,4.1265674
1.7123064,4.113929
1.7021154,4.1684446
1.6919845,4.217454
1.6819143,4.221967
1.6719041,4.2368145
1.6619537,4.2779217
1.6520622,4.314971
1.6422291,4.3177986
1.6324553,4.3365273
1.6227394,4.3544316
1.6130813,4.3868093
1.6034806,4.404918
1.5939372,4.470499
1.5844505,4.5229483
1.5750202,4.555565
1.5656462,4.5819135
1.5563277,4.5831995
1.5470649,4.575883
1.5378572,4.5900493
1.5287046,4.6546082
1.5196058,4.673871
1.5105615,4.687423
1.5015709,4.7038736
1.4926344,4.7291155
1.4837507,4.698661
1.4749194,4.67457
1.466141,4.6976023
1.4574152,4.6589155
1.4487412,4.6476865
1.4401187,4.613954
1.4315474,4.607062
1.4230273,4.5539637
1.4145577,4.5103383
1.4061385,4.4711957
1.3977697,4.4335012
1.3894506,4.4192533
1.3811809,4.4225636
1.3729603,4.397175
1.3647891,4.3915553
