energy,intensity
97.76732,0.0863967
92.828835,0.09111825
88.18945,0.09577987
83.8307,0.10096796
79.735245,0.10688307
75.88682,0.11308861
72.27017,0.11937134
68.87099,0.12581168
65.67586,0.13255203
62.672165,0.13892804
59.848106,0.14499798
57.19261,0.1518828
54.69525,0.15940228
52.346306,0.1663886
50.136597,0.17406982
48.057564,0.18368696
46.10113,0.1926802
44.25976,0.20171432
42.52636,0.21072236
40.894283,0.21980742
39.357292,0.22809598
37.909534,0.23822539
36.545517,0.2469976
35.260098,0.25744456
34.04844,0.26801467
32.906017,0.279042
31.828575,0.2886706
30.812122,0.29819348
29.85292,0.30665502
28.947456,0.31589562
28.092442,0.32395813
27.284779,0.33360094
26.521572,0.34385848
25.800108,0.35375568
25.117828,0.36359617
24.472345,0.3740772
23.861408,0.38176677
23.282911,0.38987908
22.734882,0.39857408
22.215462,0.40815482
21.722916,0.41647273
21.255604,0.4262444
20.812004,0.43393296
20.390675,0.4438258
19.990267,0.4522068
19.609518,0.46002364
19.247244,0.46679455
18.902327,0.47408214
18.573725,0.48262587
18.260456,0.49082607
17.961601,0.50085366
17.676302,0.5098419
17.403744,0.5184946
17.143167,0.5277322
16.893862,0.538789
16.655159,0.5462492
16.426428,0.5561559
16.207083,0.5690631
15.996571,0.5791867
15.794373,0.5910181
15.6,0.6018291
15.412999,0.6153542
15.232939,0.6254901
15.05942,0.64196193
14.892062,0.65620285
14.730514,0.6702071
14.574441,0.6808742
14.423531,0.6953536
14.277491,0.7073523
14.136047,0.7179254
13.998942,0.72994
13.865933,0.73903817
13.73679,0.7458803
13.611302,0.7494469
13.48927,0.74965465
13.3705015,0.74533546
13.254824,0.7466867
13.142069,0.7473427
13.032082,0.750639
12.924716,0.7530513
12.819836,0.7568314
12.717309,0.75939035
12.617017,0.76300764
12.518845,0.7698039
12.422684,0.7744758
12.328438,0.7788639
12.23601,0.7860538
12.145311,0.79742825
12.056257,0.8013897
11.968773,0.80032605
11.882783,0.800247
11.798219,0.8015482
11.7150135,0.79632425
11.633108,0.7949347
11.552444,0.79834664
11.472969,0.79842985
11.394629,0.798945
11.317378,0.80131656
11.241171,0.80067235
11.165965,0.8019001
11.091721,0.80687463
11.018401,0.8165965
10.945969,0.8204069
10.874393,0.8254058
10.803641,0.83067685
10.733684,0.8375802
10.664492,0.83810854
10.596042,0.84064245
10.528306,0.8453606
10.461264,0.84924996
10.394891,0.85299504
10.329167,0.85532695
10.264075,0.85990155
10.199594,0.86334306
10.135705,0.8591779
10.072394,0.8655885
10.0096445,0.871305
9.947442,0.8748541
9.885775,0.88045853
9.824624,0.8862346
9.763982,0.8863804
9.703834,0.88378686
9.64417,0.8913641
9.584979,0.8950493
9.526253,0.8998041
9.467979,0.9070307
9.410151,0.9135314
9.3527565,0.923333
9.295791,0.92930394
9.239244,0.93263197
9.183109,0.9367504
9.12738,0.94406223
9.07205,0.94549465
9.01711,0.9568966
8.962557,0.97099084
8.908382,0.9775483
8.854581,0.98742723
8.801149,0.99457777
8.74808,0.9992822
8.69537,1.0143653
8.643014,1.026227
8.591007,1.0304095
8.539344,1.0405579
8.48802,1.0435964
8.437034,1.0392231
8.38638,1.04498
8.336055,1.0511143
8.286055,1.0576326
8.236377,1.066129
8.187016,1.0752196
8.13797,1.0840216
8.089236,1.0873182
8.04081,1.0904328
7.9926906,1.0955427
7.9448724,1.1054292
7.8973556,1.1096879
7.850135,1.1159928
7.80321,1.134065
7.7565756,1.1444433
7.710231,1.1483065
7.664174,1.1548278
7.6184006,1.1629109
7.57291,1.1604928
7.5276995,1.165532
7.482766,1.1696174
7.4381084,1.1725366
7.3937244,1.1862584
7.349611,1.192192
7.3057675,1.2003411
7.2621903,1.2197516
7.218879,1.2333106
7.175831,1.2334183
7.133044,1.2442806
7.090517,1.2431345
7.0482473,1.2363623
7.0062337,1.2421168
6.9644732,1.2491475
6.9229665,1.2522284
6.881709,1.26227
6.840701,1.2641007
6.79994,1.2736014
6.7594247,1.2750001
6.719154,1.2791811
6.679125,1.2840186
6.6393356,1.2963104
6.599786,1.3047395
6.560474,1.3098994
6.5213976,1.312177
6.482556,1.3227293
6.443947,1.3175735
6.4055705,1.3191146
6.367422,1.3338649
6.3295035,1.3420854
6.291812,1.3390377
6.254346,1.3449677
6.217103,1.3565311
6.1800838,1.3538394
6.1432858,1.3697556
6.106708,1.3760563
6.0703483,1.3802284
6.034206,1.3788615
5.9982805,1.3844547
5.9625683,1.385678
5.92707,1.3929964
5.891784,1.398379
5.856708,1.4005502
5.8218417,1.4041948
5.787183,1.4055729
5.752732,1.4084324
5.718485,1.4331325
5.684444,1.4406921
5.650605,1.4590933
5.616968,1.4750756
5.583532,1.4802649
5.550295,1.4684434
5.5172563,1.4724953
5.4844136,1.4630286
5.4517684,1.4685903
5.419316,1.4894527
5.387058,1.4908175
5.3549924,1.5040867
5.3231173,1.5160966
5.2914324,1.5092449
5.2599363,1.5030855
5.228627,1.5131979
5.1975055,1.5169456
5.166569,1.5313735
5.135817,1.5442218
5.105248,1.5574538
5.0748606,1.5599064
5.044654,1.5620446
5.0146275,1.5632827
4.9847803,1.5653541
4.955111,1.5688609
4.9256177,1.5797303
4.8963003,1.5885955
4.867158,1.5984058
4.8381886,1.61068
4.809392,1.6148847
4.7807665,1.6178663
4.7523127,1.6244948
4.724026,1.6416054
4.695909,1.6554581
4.667959,1.666927
4.640177,1.6784735
4.612559,1.6919895
4.585105,1.6818345
4.557816,1.6734097
4.530688,1.6821464
4.5037217,1.6944773
4.4769163,1.7007272
4.450271,1.721687
4.423784,1.7342952
4.3974533,1.735426
4.3712807,1.7325176
4.345264,1.7485769
4.3194017,1.7428961
4.293693,1.7509623
4.2681384,1.766213
4.2427354,1.7894623
4.217483,1.7908726
4.192381,1.8113024
4.16743,1.82947
4.142626,1.8369157
4.11797,1.843326
4.09346,1.8568484
4.069097,1.8854669
4.0448785,1.8899292
4.0208044,1.8918473
3.9968739,1.8897203
3.9730854,1.8955481
3.949438,1.8888664
3.925932,1.8957335
3.9025662,1.9085735
3.8793387,1.9125082
3.85625,1.9100147
3.8332987,1.9131095
3.8104842,1.9157917
3.7878044,1.9287975
3.7652605,1.9391878
3.742851,1.9558462
3.7205741,1.964432
3.6984303,1.9852316
3.6764178,2.023604
3.6545374,2.0357194
3.632786,2.049509
3.6111646,2.0593655
3.5896719,2.0680518
3.5683074,2.0449996
3.5470698,2.0621605
3.525958,2.093468
3.5049734,2.1051724
3.484112,2.110269
3.4633756,2.122904
3.4427624,2.127594
3.4222722,2.1254692
3.4019039,2.1343503
3.3816562,2.144981
3.3615294,2.1565266
3.3415227,2.1794417
3.321635,2.1854901
3.3018653,2.1985755
3.2822137,2.2081969
3.2626784,2.2218637
3.24326,2.2329264
3.2239568,2.2467465
3.2047691,2.2724428
3.1856952,2.3052092
3.1667347,2.3066201
3.1478868,2.3181226
3.1291518,2.3524375
3.1105278,2.349235
3.0920146,2.3623607
3.0736122,2.3793416
3.0553188,2.4154687
3.037134,2.4036126
3.0190578,2.430039
3.0010896,2.4499152
2.9832275,2.4621482
2.9654722,2.4798303
2.9478228,2.496157
2.930278,2.5101101
2.9128375,2.528133
2.895501,2.5452778
2.878268,2.553953
2.8611374,2.5921025
2.8441086,2.6050675
2.8271809,2.619637
2.8103547,2.638941
2.7936282,2.6531806
2.7770011,2.6413293
2.7604735,2.673464
2.7440438,2.6894717
2.7277122,2.7263532
2.711477,2.7410698
2.6953394,2.7617946
2.6792972,2.7750764
2.663351,2.7900543
2.6474993,2.8056617
2.631742,2.8064458
2.6160786,2.8315818
2.6005085,2.8479764
2.5850313,2.8644662
2.5696461,2.8686078
2.5543516,2.8943186
2.5391486,2.9127932
2.524037,2.9158375
2.5090146,2.951252
2.4940815,2.959599
2.4792366,2.9632506
2.4644816,2.978044
2.4498136,3.0006206
2.4352329,3.0161989
2.420739,3.0312564
2.4063315,3.045178
2.3920097,3.0852828
2.377773,3.103145
2.363621,3.1260285
2.3495533,3.1911373
2.3355696,3.205888
2.3216686,3.2081819
2.3078513,3.2519486
2.294115,3.2581165
2.280461,3.2463963
2.2668889,3.2587807
2.253397,3.2615235
2.2399855,3.2674263
2.2266536,3.2641454
2.213401,3.2744966
2.2002275,3.3033497
2.1871324,3.3224635
2.174115,3.3269818
2.1611753,3.3455567
2.1483126,3.356793
2.1355262,3.3700862
2.1228166,3.4388719
2.1101818,3.473925
2.0976226,3.5286746
2.0851378,3.5602574
2.0727284,3.582975
2.060392,3.5592842
2.0481286,3.5600178
2.0359385,3.566342
2.0238216,3.5934396
2.0117764,3.6265132
1.9998028,3.6278777
1.9879006,3.6656833
1.9760691,3.682483
1.9643079,3.7178497
1.9526169,3.7311778
1.9409955,3.7744827
1.9294431,3.7887967
1.9179596,3.8220906
1.9065444,3.8282037
1.8951972,3.8572593
1.8839173,3.9042697
1.8727047,3.954808
1.8615594,3.9738014
1.8504798,4.001521
1.8394659,4.0373316
1.8285179,4.0297117
1.8176354,4.065832
1.8068173,4.0966105
1.7960637,4.1211386
1.7853739,4.188142
1.7747478,4.1960216
1.7641851,4.2145543
1.753685,4.2348166
1.7432475,4.2351613
1.7328722,4.2194223
1.7225585,4.248061
1.7123064,4.2565207
1.7021154,4.2965207
1.6919845,4.3368483
1.6819143,4.3524456
1.6719041,4.3802443
1.6619537,4.40472
1.6520622,4.4486866
1.6422291,4.4744396
1.6324553,4.4825325
1.6227394,4.4887724
1.6130813,4.5219545
1.6034806,4.5354342
1.5939372,4.5790014
1.5844505,4.6220107
1.5750202,4.650607
1.5656462,4.6663847
1.5563277,4.6793833
1.5470649,4.688612
1.5378572,4.705344
1.5287046,4.7525296
1.5196058,4.772378
1.5105615,4.783634
1.5015709,4.795822
1.4926344,4.8128505
1.4837507,4.8083634
1.4749194,4.7997108
1.466141,4.7947464
1.4574152,4.7606297
1.4487412,4.7580347
1.4401187,4.7451463
1.4315474,4.7329493
1.4230273,4.689796
1.4145577,4.666505
1.4061385,4.651036
1.3977697,4.612339
1.3894506,4.590793
1.3811809,4.6088095
1.3729603,4.5961804
1.3647891,4.592817
