energy,intensity
97.76732,0.10129166
92.828835,0.106649056
88.18945,0.11272098
83.8307,0.11913663
79.735245,0.12656823
75.88682,0.13413593
72.27017,0.14203501
68.87099,0.15033251
65.67586,0.15897392
62.672165,0.16763657
59.848106,0.17610541
57.19261,0.18542561
54.69525,0.19551292
52.346306,0.20561886
50.136597,0.2162176
48.057564,0.22859558
46.10113,0.24066107
44.25976,0.25293916
42.52636,0.2654705
40.894283,0.27762908
39.357292,0.289542
37.909534,0.30328313
36.545517,0.3159549
35.260098,0.33089417
34.04844,0.34501708
32.906017,0.36004278
31.828575,0.3741942
30.812122,0.38809493
29.85292,0.3996885
28.947456,0.41304404
28.092442,0.4262879
27.284779,0.44050446
26.521572,0.45800304
25.800108,0.4723878
25.117828,0.487013
24.472345,0.5018776
23.861408,0.5138747
23.282911,0.5266427
22.734882,0.539785
22.215462,0.55299443
21.722916,0.5664698
21.255604,0.5805648
20.812004,0.5922409
20.390675,0.6051912
19.990267,0.6185491
19.609518,0.63233787
19.247244,0.64303166
18.902327,0.6549191
18.573725,0.66361064
18.260456,0.67324436
17.961601,0.68347514
17.676302,0.6933555
17.403744,0.70220983
17.143167,0.7105945
16.893862,0.71755385
16.655159,0.7210315
16.426428,0.7270017
16.207083,0.7344197
15.996571,0.7417224
15.794373,0.7487335
15.6,0.75564027
15.412999,0.76216805
15.232939,0.7649757
15.05942,0.7709913
14.892062,0.77506894
14.730514,0.78070784
14.574441,0.78278595
14.423531,0.7856358
14.277491,0.7897018
14.136047,0.7910236
13.998942,0.7964869
13.865933,0.79972506
13.73679,0.8019536
13.611302,0.803261
13.48927,0.803417
13.3705015,0.80414045
13.254824,0.8046893
13.142069,0.8058427
13.032082,0.80450284
12.924716,0.8020778
12.819836,0.8011575
12.717309,0.79858834
12.617017,0.79629713
12.518845,0.7932543
12.422684,0.78933364
12.328438,0.7917133
12.23601,0.7938929
12.145311,0.8014967
12.056257,0.8045238
11.968773,0.80688304
11.882783,0.80477226
11.798219,0.8085696
11.7150135,0.80302316
11.633108,0.8035549
11.552444,0.80891407
11.472969,0.8083104
11.394629,0.80774564
11.317378,0.8130023
11.241171,0.81373036
11.165965,0.8169983
11.091721,0.821812
11.018401,0.826489
10.945969,0.82518685
10.874393,0.8308854
10.803641,0.8357887
10.733684,0.84015286
10.664492,0.83783597
10.596042,0.83762485
10.528306,0.84135735
10.461264,0.8478607
10.394891,0.8514568
10.329167,0.8530756
10.264075,0.85551214
10.199594,0.8590683
10.135705,0.852152
10.072394,0.8586625
10.0096445,0.86898196
9.947442,0.87237036
9.885775,0.8773712
9.824624,0.88090897
9.763982,0.8823613
9.703834,0.88019246
9.64417,0.886542
9.584979,0.8889841
9.526253,0.88942987
9.467979,0.89382964
9.410151,0.89592475
9.3527565,0.9026659
9.295791,0.90725946
9.239244,0.90809315
9.183109,0.91285294
9.12738,0.9189042
9.07205,0.92114437
9.01711,0.92901313
8.962557,0.93937045
8.908382,0.9421464
8.854581,0.95049715
8.801149,0.95676297
8.74808,0.9587461
8.69537,0.96973914
8.643014,0.9786402
8.591007,0.97915107
8.539344,0.9845644
8.48802,0.98983276
8.437034,0.9884076
8.38638,0.9898718
8.336055,0.995499
8.286055,1.0030847
8.236377,1.0119581
8.187016,1.0184143
8.13797,1.0258023
8.089236,1.0285686
8.04081,1.0329558
7.9926906,1.038811
7.9448724,1.0549414
7.8973556,1.0640491
7.850135,1.0728564
7.80321,1.0854542
7.7565756,1.0953529
7.710231,1.1006173
7.664174,1.1095068
7.6184006,1.1157916
7.57291,1.1161611
7.5276995,1.1228647
7.482766,1.1214501
7.4381084,1.1297462
7.3937244,1.1428179
7.349611,1.1455247
7.3057675,1.149813
7.2621903,1.1709213
7.218879,1.1815702
7.175831,1.177722
7.133044,1.1878426
7.090517,1.1882031
7.0482473,1.1854314
7.0062337,1.1883912
6.9644732,1.1980214
6.9229665,1.202475
6.881709,1.2077835
6.840701,1.2078004
6.79994,1.2156814
6.7594247,1.2195281
6.719154,1.2246742
6.679125,1.229838
6.6393356,1.2448698
6.599786,1.2606976
6.560474,1.2682521
6.5213976,1.2729541
6.482556,1.2810298
6.443947,1.2792326
6.4055705,1.2841742
6.367422,1.2962044
6.3295035,1.3074138
6.291812,1.3140912
6.254346,1.3252164
6.217103,1.3389989
6.1800838,1.3392594
6.1432858,1.35911
6.106708,1.3636811
6.0703483,1.3696944
6.034206,1.3740447
5.9982805,1.383728
5.9625683,1.3900658
5.92707,1.3966746
5.891784,1.407506
5.856708,1.4206505
5.8218417,1.4194229
5.787183,1.4236543
5.752732,1.4344537
5.718485,1.459564
5.684444,1.4677931
5.650605,1.4899573
5.616968,1.5076773
5.583532,1.5096776
5.550295,1.496723
5.5172563,1.5072663
5.4844136,1.5011879
5.4517684,1.5115097
5.419316,1.5377245
5.387058,1.5477417
5.3549924,1.563523
5.3231173,1.5808032
5.2914324,1.5770855
5.2599363,1.5729901
5.228627,1.5801857
5.1975055,1.5793012
5.166569,1.5910084
5.135817,1.6027987
5.105248,1.6180891
5.0748606,1.6252009
5.044654,1.6332037
5.0146275,1.6331291
4.9847803,1.6405754
4.955111,1.6468786
4.9256177,1.6555598
4.8963003,1.6687378
4.867158,1.6790279
4.8381886,1.6851763
4.809392,1.6931512
4.7807665,1.7038971
4.7523127,1.71257
4.724026,1.7391297
4.695909,1.7606844
4.667959,1.7771422
4.640177,1.7874695
4.612559,1.7899797
4.585105,1.7902377
4.557816,1.787883
4.530688,1.8053242
4.5037217,1.8216194
4.4769163,1.826683
4.450271,1.8464377
4.423784,1.8611066
4.3974533,1.8587
4.3712807,1.862182
4.345264,1.8826965
4.3194017,1.8852212
4.293693,1.8921087
4.2681384,1.9092261
4.2427354,1.9415528
4.217483,1.9511102
4.192381,1.9718058
4.16743,1.9951195
4.142626,1.9993471
4.11797,2.0113182
4.09346,2.0265563
4.069097,2.0676205
4.0448785,2.070299
4.0208044,2.0787187
3.9968739,2.0828013
3.9730854,2.1007588
3.949438,2.0894182
3.925932,2.1041493
3.9025662,2.1223338
3.8793387,2.1286721
3.85625,2.1286032
3.8332987,2.1542385
3.8104842,2.164848
3.7878044,2.175892
3.7652605,2.194324
3.742851,2.208627
3.7205741,2.2159915
3.6984303,2.2351542
3.6764178,2.2769992
3.6545374,2.292223
3.632786,2.307548
3.6111646,2.3129125
3.5896719,2.3259506
3.5683074,2.3007772
3.5470698,2.3141432
3.525958,2.3428376
3.5049734,2.3618405
3.484112,2.3684738
3.4633756,2.385592
3.4427624,2.3969207
3.4222722,2.3930109
3.4019039,2.4030662
3.3816562,2.4247606
3.3615294,2.429335
3.3415227,2.44388
3.321635,2.4392602
3.3018653,2.4529858
3.2822137,2.462359
3.2626784,2.471311
3.24326,2.482971
3.2239568,2.5041487
3.2047691,2.5300257
3.1856952,2.5675275
3.1667347,2.5760167
3.1478868,2.5872855
3.1291518,2.6004539
3.1105278,2.606212
3.0920146,2.618056
3.0736122,2.6375136
3.0553188,2.6647217
3.037134,2.661536
3.0190578,2.6827667
3.0010896,2.694471
2.9832275,2.7008605
2.9654722,2.7136009
2.9478228,2.733792
2.930278,2.738753
2.9128375,2.7516582
2.895501,2.773153
2.878268,2.7710743
2.8611374,2.8018885
2.8441086,2.8212194
2.8271809,2.8201194
2.8103547,2.8282125
2.7936282,2.8446262
2.7770011,2.834444
2.7604735,2.859838
2.7440438,2.8780205
2.7277122,2.914433
2.711477,2.952787
2.6953394,2.9688482
2.6792972,2.9752336
2.663351,2.9935925
2.6474993,3.0065753
2.631742,3.003592
2.6160786,3.0315757
2.6005085,3.0374317
2.5850313,3.0415626
2.5696461,3.045068
2.5543516,3.0678525
2.5391486,3.0873656
2.524037,3.092031
2.5090146,3.1290798
2.4940815,3.1408222
2.4792366,3.1537666
2.4644816,3.1573157
2.4498136,3.1785932
2.4352329,3.184495
2.420739,3.2083652
2.4063315,3.220327
2.3920097,3.2554047
2.377773,3.2632835
2.363621,3.2926598
2.3495533,3.3482509
2.3355696,3.3726535
2.3216686,3.3696861
2.3078513,3.4112713
2.294115,3.4348645
2.280461,3.4108193
2.2668889,3.4100838
2.253397,3.432436
2.2399855,3.4439037
2.2266536,3.4397209
2.213401,3.448497
2.2002275,3.470466
2.1871324,3.4673228
2.174115,3.4787242
2.1611753,3.5069509
2.1483126,3.5293007
2.1355262,3.54771
2.1228166,3.6148205
2.1101818,3.6481729
2.0976226,3.700501
2.0851378,3.7142937
2.0727284,3.7386346
2.060392,3.7109382
2.0481286,3.717547
2.0359385,3.7098248
2.0238216,3.7327542
2.0117764,3.7673843
1.9998028,3.7695918
1.9879006,3.8243299
1.9760691,3.8376663
1.9643079,3.8791413
1.9526169,3.906833
1.9409955,3.9511902
1.9294431,3.944717
1.9179596,3.9743977
1.9065444,3.9814231
1.8951972,4.0167646
1.8839173,4.07553
1.8727047,4.132526
1.8615594,4.1471186
1.8504798,4.181374
1.8394659,4.2206316
1.8285179,4.2133145
1.8176354,4.240939
1.8068173,4.272767
1.7960637,4.312105
1.7853739,4.382694
1.7747478,4.404841
1.7641851,4.4229765
1.753685,4.4386845
1.7432475,4.437749
1.7328722,4.417352
1.7225585,4.443802
1.7123064,4.448339
1.7021154,4.5022955
1.6919845,4.551587
1.6819143,4.5779743
1.6719041,4.6071234
1.6619537,4.622463
1.6520622,4.664216
1.6422291,4.665594
1.6324553,4.694418
1.6227394,4.7099857
1.6130813,4.7282763
1.6034806,4.7493353
1.5939372,4.798743
1.5844505,4.843985
1.5750202,4.8877516
1.5656462,4.9151597
1.5563277,4.9100375
1.5470649,4.9159503
1.5378572,4.934989
1.5287046,4.9864016
1.5196058,4.998086
1.5105615,5.0241632
1.5015709,5.044566
1.4926344,5.0484786
1.4837507,5.063034
1.4749194,5.0578766
1.466141,5.0495014
1.4574152,5.0059404
1.4487412,4.973716
1.4401187,4.9318438
1.4315474,4.908581
1.4230273,4.8644376
1.4145577,4.8452744
1.4061385,4.827775
1.3977697,4.791176
1.3894506,4.786391
1.3811809,4.7855864
1.3729603,4.7856593
1.3647891,4.793014
