energy,intensity
97.76732,0.08428584
92.828835,0.08902033
88.18945,0.09358807
83.8307,0.0990436
79.735245,0.104932785
75.88682,0.11134583
72.27017,0.11764191
68.87099,0.1240813
65.67586,0.13064894
62.672165,0.13746712
59.848106,0.14388093
57.19261,0.15099342
54.69525,0.15908344
52.346306,0.16688836
50.136597,0.17485246
48.057564,0.18462446
46.10113,0.19457169
44.25976,0.20401284
42.52636,0.21386644
40.894283,0.22350347
39.357292,0.23237948
37.909534,0.24451268
36.545517,0.25705883
35.260098,0.2700159
34.04844,0.28171632
32.906017,0.29472098
31.828575,0.30661547
30.812122,0.31847557
29.85292,0.33036366
28.947456,0.344764
28.092442,0.35572273
27.284779,0.36966157
26.521572,0.38424474
25.800108,0.39763713
25.117828,0.4117363
24.472345,0.42473412
23.861408,0.4367052
23.282911,0.4486794
22.734882,0.4618601
22.215462,0.4735747
21.722916,0.48451328
21.255604,0.49673805
20.812004,0.50718623
20.390675,0.5188064
19.990267,0.5315246
19.609518,0.54369795
19.247244,0.55944365
18.902327,0.5714972
18.573725,0.58043426
18.260456,0.5893574
17.961601,0.5997297
17.676302,0.6113006
17.403744,0.62137514
17.143167,0.632346
16.893862,0.64314014
16.655159,0.65087426
16.426428,0.65878725
16.207083,0.6691381
15.996571,0.67957914
15.794373,0.6901193
15.6,0.7015129
15.412999,0.71455014
15.232939,0.72538173
15.05942,0.73846847
14.892062,0.75125664
14.730514,0.760285
14.574441,0.76892513
14.423531,0.7757611
14.277491,0.7822711
14.136047,0.78259325
13.998942,0.78589755
13.865933,0.7826405
13.73679,0.7816403
13.611302,0.7772081
13.48927,0.7717414
13.3705015,0.7663139
13.254824,0.76598436
13.142069,0.76393056
13.032082,0.76223695
12.924716,0.7590109
12.819836,0.76000565
12.717309,0.7600759
12.617017,0.76369876
12.518845,0.7643475
12.422684,0.7635957
12.328438,0.7693151
12.23601,0.7715632
12.145311,0.7798379
12.056257,0.7849955
11.968773,0.7885475
11.882783,0.78569245
11.798219,0.79304844
11.7150135,0.78553116
11.633108,0.7888131
11.552444,0.7952014
11.472969,0.7957696
11.394629,0.7966491
11.317378,0.8011881
11.241171,0.80054295
11.165965,0.8004683
11.091721,0.80346775
11.018401,0.8102652
10.945969,0.81058156
10.874393,0.8123083
10.803641,0.82018405
10.733684,0.8244464
10.664492,0.8224365
10.596042,0.8214402
10.528306,0.82244575
10.461264,0.82452124
10.394891,0.8307646
10.329167,0.8309854
10.264075,0.83342344
10.199594,0.83783734
10.135705,0.8359491
10.072394,0.8390392
10.0096445,0.84618664
9.947442,0.84914035
9.885775,0.85473126
9.824624,0.8578323
9.763982,0.8534853
9.703834,0.85233545
9.64417,0.8583619
9.584979,0.8572942
9.526253,0.8590704
9.467979,0.86512506
9.410151,0.8685883
9.3527565,0.87391853
9.295791,0.88068116
9.239244,0.883869
9.183109,0.8903797
9.12738,0.8956569
9.07205,0.896794
9.01711,0.9088663
8.962557,0.91974944
8.908382,0.9248533
8.854581,0.9350686
8.801149,0.94223154
8.74808,0.943628
8.69537,0.95302534
8.643014,0.96064794
8.591007,0.9613884
8.539344,0.9643116
8.48802,0.9727107
8.437034,0.96945924
8.38638,0.9730619
8.336055,0.98050547
8.286055,0.99150866
8.236377,0.99590075
8.187016,1.003503
8.13797,1.0070508
8.089236,1.012399
8.04081,1.0190384
7.9926906,1.0291736
7.9448724,1.0435998
7.8973556,1.049327
7.850135,1.0573051
7.80321,1.0740932
7.7565756,1.0833614
7.710231,1.0859149
7.664174,1.0962331
7.6184006,1.1068256
7.57291,1.101192
7.5276995,1.1116669
7.482766,1.1160115
7.4381084,1.1203673
7.3937244,1.1302378
7.349611,1.1348464
7.3057675,1.1442434
7.2621903,1.1649178
7.218879,1.1789533
7.175831,1.1791399
7.133044,1.1890652
7.090517,1.1775448
7.0482473,1.1664615
7.0062337,1.1632918
6.9644732,1.1694324
6.9229665,1.1705656
6.881709,1.1811738
6.840701,1.1854926
6.79994,1.1911027
6.7594247,1.1930821
6.719154,1.1924459
6.679125,1.1991575
6.6393356,1.2107217
6.599786,1.2248034
6.560474,1.2263831
6.5213976,1.2279372
6.482556,1.2346221
6.443947,1.2316449
6.4055705,1.2299483
6.367422,1.2402842
6.3295035,1.2470257
6.291812,1.2482595
6.254346,1.2559694
6.217103,1.2658308
6.1800838,1.2633011
6.1432858,1.2789118
6.106708,1.2844301
6.0703483,1.28949
6.034206,1.2883022
5.9982805,1.2965028
5.9625683,1.2969558
5.92707,1.299329
5.891784,1.3088373
5.856708,1.3199022
5.8218417,1.3260596
5.787183,1.3232024
5.752732,1.3354213
5.718485,1.3586677
5.684444,1.3714061
5.650605,1.3891351
5.616968,1.4028875
5.583532,1.4071238
5.550295,1.3977444
5.5172563,1.3997927
5.4844136,1.3983701
5.4517684,1.4054105
5.419316,1.4344765
5.387058,1.4355123
5.3549924,1.4538784
5.3231173,1.4702289
5.2914324,1.467497
5.2599363,1.4574955
5.228627,1.4748398
5.1975055,1.4761212
5.166569,1.4886167
5.135817,1.5009258
5.105248,1.515322
5.0748606,1.5235361
5.044654,1.5292017
5.0146275,1.5354602
4.9847803,1.5437791
4.955111,1.5489165
4.9256177,1.5576011
4.8963003,1.5701925
4.867158,1.5775039
4.8381886,1.5935581
4.809392,1.5979625
4.7807665,1.6084425
4.7523127,1.6186844
4.724026,1.6397598
4.695909,1.657315
4.667959,1.6784465
4.640177,1.6913149
4.612559,1.7020721
4.585105,1.704973
4.557816,1.7011513
4.530688,1.7248099
4.5037217,1.7361053
4.4769163,1.7409813
4.450271,1.771979
4.423784,1.7829174
4.3974533,1.7754157
4.3712807,1.7783989
4.345264,1.7964052
4.3194017,1.789328
4.293693,1.7925953
4.2681384,1.8074143
4.2427354,1.82954
4.217483,1.8301567
4.192381,1.8511679
4.16743,1.879339
4.142626,1.8912932
4.11797,1.9036758
4.09346,1.9111688
4.069097,1.9436843
4.0448785,1.9520886
4.0208044,1.9558245
3.9968739,1.9486265
3.9730854,1.9639517
3.949438,1.949584
3.925932,1.9642187
3.9025662,1.9800752
3.8793387,1.9964262
3.85625,2.0027266
3.8332987,2.018888
3.8104842,2.0298316
3.7878044,2.0392995
3.7652605,2.0503514
3.742851,2.0665102
3.7205741,2.069899
3.6984303,2.0799348
3.6764178,2.127571
3.6545374,2.1426952
3.632786,2.1603255
3.6111646,2.166821
3.5896719,2.184248
3.5683074,2.1627064
3.5470698,2.1797523
3.525958,2.2022839
3.5049734,2.2303963
3.484112,2.2358255
3.4633756,2.2471144
3.4427624,2.2474823
3.4222722,2.2490478
3.4019039,2.2582417
3.3816562,2.2756307
3.3615294,2.2918499
3.3415227,2.3077464
3.321635,2.3180635
3.3018653,2.3328233
3.2822137,2.3445764
3.2626784,2.3559415
3.24326,2.3678071
3.2239568,2.3864923
3.2047691,2.4116645
3.1856952,2.4438958
3.1667347,2.4534802
3.1478868,2.4589367
3.1291518,2.4875922
3.1105278,2.4936094
3.0920146,2.5066595
3.0736122,2.5259233
3.0553188,2.5543656
3.037134,2.5347278
3.0190578,2.5590503
3.0010896,2.561781
2.9832275,2.5756583
2.9654722,2.5964704
2.9478228,2.6223693
2.930278,2.6261675
2.9128375,2.645384
2.895501,2.6592155
2.878268,2.659484
2.8611374,2.6845505
2.8441086,2.7251515
2.8271809,2.7368424
2.8103547,2.7532284
2.7936282,2.769193
2.7770011,2.7674556
2.7604735,2.7908692
2.7440438,2.803342
2.7277122,2.8339798
2.711477,2.8429081
2.6953394,2.8637035
2.6792972,2.8748832
2.663351,2.8959155
2.6474993,2.9099612
2.631742,2.9224143
2.6160786,2.9482453
2.6005085,2.9653387
2.5850313,2.981968
2.5696461,2.9913383
2.5543516,3.0143704
2.5391486,3.0226884
2.524037,3.0321481
2.5090146,3.0624666
2.4940815,3.0714796
2.4792366,3.0939746
2.4644816,3.1172156
2.4498136,3.1406255
2.4352329,3.155849
2.420739,3.178347
2.4063315,3.193149
2.3920097,3.2286716
2.377773,3.2400575
2.363621,3.2742143
2.3495533,3.3426833
2.3355696,3.3676753
2.3216686,3.3596702
2.3078513,3.3898609
2.294115,3.4019222
2.280461,3.3929753
2.2668889,3.4011083
2.253397,3.418892
2.2399855,3.432874
2.2266536,3.4358048
2.213401,3.446527
2.2002275,3.4605575
2.1871324,3.4845996
2.174115,3.4981105
2.1611753,3.5022423
2.1483126,3.5137405
2.1355262,3.5449872
2.1228166,3.6018124
2.1101818,3.6378415
2.0976226,3.6921864
2.0851378,3.73381
2.0727284,3.7561638
2.060392,3.729983
2.0481286,3.7352862
2.0359385,3.7148209
2.0238216,3.7277272
2.0117764,3.7630494
1.9998028,3.7710457
1.9879006,3.8221364
1.9760691,3.8516402
1.9643079,3.8968978
1.9526169,3.9150195
1.9409955,3.9609234
1.9294431,3.9552627
1.9179596,3.993342
1.9065444,3.99362
1.8951972,4.015231
1.8839173,4.0585575
1.8727047,4.107692
1.8615594,4.1182323
1.8504798,4.148388
1.8394659,4.179547
1.8285179,4.188675
1.8176354,4.2393403
1.8068173,4.271962
1.7960637,4.295112
1.7853739,4.364785
1.7747478,4.378636
1.7641851,4.386728
1.753685,4.3989053
1.7432475,4.396064
1.7328722,4.3745794
1.7225585,4.3940225
1.7123064,4.409297
1.7021154,4.468996
1.6919845,4.521523
1.6819143,4.539954
1.6719041,4.5680056
1.6619537,4.5874853
1.6520622,4.614072
1.6422291,4.6151495
1.6324553,4.63922
1.6227394,4.653563
1.6130813,4.6913366
1.6034806,4.724864
1.5939372,4.76683
1.5844505,4.79537
1.5750202,4.8167005
1.5656462,4.8557506
1.5563277,4.8558764
1.5470649,4.8577065
1.5378572,4.875451
1.5287046,4.905592
1.5196058,4.942616
1.5105615,4.980868
1.5015709,4.988429
1.4926344,5.007585
1.4837507,5.016019
1.4749194,4.980033
1.466141,4.9989467
1.4574152,4.9710383
1.4487412,4.9526496
1.4401187,4.9056053
1.4315474,4.9136577
1.4230273,4.8777146
1.4145577,4.855549
1.4061385,4.8133054
1.3977697,4.7797384
1.3894506,4.7455983
1.3811809,4.7540197
1.3729603,4.751786
1.3647891,4.740835
