energy,intensity
97.76732,0.08876027
92.828835,0.093466654
88.18945,0.09868029
83.8307,0.10415788
79.735245,0.1103462
75.88682,0.116784796
72.27017,0.12335305
68.87099,0.13024315
65.67586,0.13761954
62.672165,0.1447486
59.848106,0.15165173
57.19261,0.15920125
54.69525,0.16692202
52.346306,0.17499538
50.136597,0.18305591
48.057564,0.19269893
46.10113,0.20216918
44.25976,0.21179509
42.52636,0.22114567
40.894283,0.23036246
39.357292,0.23935862
37.909534,0.24938145
36.545517,0.25857002
35.260098,0.2705105
34.04844,0.28137484
32.906017,0.29295433
31.828575,0.3041498
30.812122,0.315504
29.85292,0.325252
28.947456,0.33597797
28.092442,0.34775573
27.284779,0.36018035
26.521572,0.37350434
25.800108,0.3855261
25.117828,0.39819694
24.472345,0.4113721
23.861408,0.4225747
23.282911,0.43438497
22.734882,0.44690156
22.215462,0.45996732
21.722916,0.47186852
21.255604,0.48436236
20.812004,0.49573383
20.390675,0.5098259
19.990267,0.5228731
19.609518,0.5348784
19.247244,0.54487044
18.902327,0.55550486
18.573725,0.56697595
18.260456,0.5776578
17.961601,0.590182
17.676302,0.6033253
17.403744,0.6148616
17.143167,0.62641174
16.893862,0.6366881
16.655159,0.6451151
16.426428,0.65365565
16.207083,0.6629505
15.996571,0.6707663
15.794373,0.6802736
15.6,0.6868863
15.412999,0.69540876
15.232939,0.70048034
15.05942,0.70768297
14.892062,0.71505034
14.730514,0.72062314
14.574441,0.72155917
14.423531,0.72477597
14.277491,0.7279142
14.136047,0.73437506
13.998942,0.7437477
13.865933,0.7507773
13.73679,0.7613269
13.611302,0.7670645
13.48927,0.77335745
13.3705015,0.7775096
13.254824,0.78276014
13.142069,0.7883702
13.032082,0.7946892
12.924716,0.79926664
12.819836,0.80795944
12.717309,0.81778735
12.617017,0.8232511
12.518845,0.8298232
12.422684,0.8370654
12.328438,0.8445255
12.23601,0.85221136
12.145311,0.8643193
12.056257,0.8680517
11.968773,0.8726967
11.882783,0.8719181
11.798219,0.87619686
11.7150135,0.8737358
11.633108,0.8770143
11.552444,0.8831379
11.472969,0.8839353
11.394629,0.88401777
11.317378,0.8908225
11.241171,0.89362943
11.165965,0.8986071
11.091721,0.9035739
11.018401,0.91275203
10.945969,0.9178626
10.874393,0.924973
10.803641,0.93129957
10.733684,0.93574476
10.664492,0.935002
10.596042,0.9325382
10.528306,0.9367434
10.461264,0.9437192
10.394891,0.9500245
10.329167,0.95691365
10.264075,0.9621326
10.199594,0.9653655
10.135705,0.9629906
10.072394,0.9670235
10.0096445,0.9725049
9.947442,0.97639453
9.885775,0.9810152
9.824624,0.98549396
9.763982,0.9868515
9.703834,0.9883257
9.64417,0.99670017
9.584979,0.9993679
9.526253,1.0030878
9.467979,1.009415
9.410151,1.0154636
9.3527565,1.0255802
9.295791,1.0273311
9.239244,1.0326749
9.183109,1.0377214
9.12738,1.0446942
9.07205,1.0430558
9.01711,1.0526346
8.962557,1.0605009
8.908382,1.0662978
8.854581,1.0744182
8.801149,1.0806106
8.74808,1.0845077
8.69537,1.0935892
8.643014,1.1050899
8.591007,1.1089038
8.539344,1.1174847
8.48802,1.1232145
8.437034,1.1189778
8.38638,1.1127392
8.336055,1.1222464
8.286055,1.1255105
8.236377,1.1298287
8.187016,1.1405461
8.13797,1.1492057
8.089236,1.1570274
8.04081,1.1603808
7.9926906,1.1679122
7.9448724,1.1765878
7.8973556,1.1849554
7.850135,1.1900468
7.80321,1.2026044
7.7565756,1.2107716
7.710231,1.2139022
7.664174,1.2162668
7.6184006,1.2220483
7.57291,1.2207532
7.5276995,1.2275057
7.482766,1.2329346
7.4381084,1.2397507
7.3937244,1.2523036
7.349611,1.2564585
7.3057675,1.263203
7.2621903,1.2853918
7.218879,1.2961239
7.175831,1.2970133
7.133044,1.3090719
7.090517,1.3068799
7.0482473,1.3056448
7.0062337,1.3105702
6.9644732,1.318846
6.9229665,1.3244439
6.881709,1.3340738
6.840701,1.345258
6.79994,1.3543904
6.7594247,1.3601433
6.719154,1.3667812
6.679125,1.3751903
6.6393356,1.386934
6.599786,1.4031729
6.560474,1.4104733
6.5213976,1.4166964
6.482556,1.4298929
6.443947,1.4294388
6.4055705,1.4357338
6.367422,1.447531
6.3295035,1.4568917
6.291812,1.4596137
6.254346,1.4667308
6.217103,1.4699066
6.1800838,1.46954
6.1432858,1.4856765
6.106708,1.4888633
6.0703483,1.4953868
6.034206,1.5002494
5.9982805,1.5131115
5.9625683,1.513643
5.92707,1.520747
5.891784,1.527388
5.856708,1.5345504
5.8218417,1.533256
5.787183,1.5366626
5.752732,1.547886
5.718485,1.5736758
5.684444,1.5841221
5.650605,1.6033823
5.616968,1.6212637
5.583532,1.6291507
5.550295,1.6182206
5.5172563,1.6189544
5.4844136,1.6201694
5.4517684,1.6261389
5.419316,1.6476767
5.387058,1.6507986
5.3549924,1.666383
5.3231173,1.678819
5.2914324,1.674864
5.2599363,1.6652749
5.228627,1.6799719
5.1975055,1.6880739
5.166569,1.6990258
5.135817,1.709482
5.105248,1.7225647
5.0748606,1.7291559
5.044654,1.7363411
5.0146275,1.7409414
4.9847803,1.7534065
4.955111,1.7551063
4.9256177,1.7685664
4.8963003,1.7741096
4.867158,1.7847322
4.8381886,1.7912128
4.809392,1.7986139
4.7807665,1.8011757
4.7523127,1.8122658
4.724026,1.8271167
4.695909,1.8454844
4.667959,1.861516
4.640177,1.8748538
4.612559,1.8892307
4.585105,1.8919842
4.557816,1.8841803
4.530688,1.9070101
4.5037217,1.9223007
4.4769163,1.9263442
4.450271,1.9375509
4.423784,1.9517803
4.3974533,1.954874
4.3712807,1.9569366
4.345264,1.9847082
4.3194017,1.9841421
4.293693,1.9868829
4.2681384,1.9974177
4.2427354,2.024106
4.217483,2.030712
4.192381,2.0539641
4.16743,2.0732365
4.142626,2.0877547
4.11797,2.0970788
4.09346,2.1096354
4.069097,2.1433387
4.0448785,2.151142
4.0208044,2.154985
3.9968739,2.157343
3.9730854,2.1764781
3.949438,2.1585991
3.925932,2.1678214
3.9025662,2.1796837
3.8793387,2.1889882
3.85625,2.1930492
3.8332987,2.2107296
3.8104842,2.225873
3.7878044,2.2368984
3.7652605,2.2529936
3.742851,2.2699776
3.7205741,2.2777095
3.6984303,2.2893825
3.6764178,2.3327384
3.6545374,2.339149
3.632786,2.3463533
3.6111646,2.3519504
3.5896719,2.3648179
3.5683074,2.3406916
3.5470698,2.3616717
3.525958,2.3947728
3.5049734,2.4062076
3.484112,2.4114385
3.4633756,2.4250371
3.4427624,2.437446
3.4222722,2.4265597
3.4019039,2.445788
3.3816562,2.446679
3.3615294,2.4544113
3.3415227,2.4747603
3.321635,2.4904523
3.3018653,2.5005221
3.2822137,2.5172648
3.2626784,2.536346
3.24326,2.5555654
3.2239568,2.575374
3.2047691,2.6003168
3.1856952,2.636415
3.1667347,2.6443982
3.1478868,2.6449962
3.1291518,2.676159
3.1105278,2.6800344
3.0920146,2.696081
3.0736122,2.7145867
3.0553188,2.7446349
3.037134,2.7409708
3.0190578,2.7597883
3.0010896,2.7738903
2.9832275,2.784166
2.9654722,2.8003454
2.9478228,2.819577
2.930278,2.8290198
2.9128375,2.8489525
2.895501,2.8629985
2.878268,2.8584278
2.8611374,2.8938286
2.8441086,2.921375
2.8271809,2.9172761
2.8103547,2.936811
2.7936282,2.9627187
2.7770011,2.9516737
2.7604735,2.971452
2.7440438,2.9865952
2.7277122,3.0199285
2.711477,3.056234
2.6953394,3.08316
2.6792972,3.093484
2.663351,3.115279
2.6474993,3.1240506
2.631742,3.1328151
2.6160786,3.1521277
2.6005085,3.165971
2.5850313,3.1770551
2.5696461,3.1853309
2.5543516,3.195869
2.5391486,3.2150047
2.524037,3.2307982
2.5090146,3.257093
2.4940815,3.2771773
2.4792366,3.3014896
2.4644816,3.3236146
2.4498136,3.3458874
2.4352329,3.3623402
2.420739,3.3902764
2.4063315,3.4141986
2.3920097,3.450438
2.377773,3.4723194
2.363621,3.5023334
2.3495533,3.5604165
2.3355696,3.5873332
2.3216686,3.5900333
2.3078513,3.6108975
2.294115,3.6198483
2.280461,3.5975475
2.2668889,3.6094697
2.253397,3.6149566
2.2399855,3.6307616
2.2266536,3.6459737
2.213401,3.6513882
2.2002275,3.6686268
2.1871324,3.6998951
2.174115,3.7006564
2.1611753,3.7302108
2.1483126,3.7444274
2.1355262,3.7682076
2.1228166,3.8318462
2.1101818,3.8630536
2.0976226,3.9118183
2.0851378,3.9610302
2.0727284,3.9882507
2.060392,3.9789777
2.0481286,3.9985447
2.0359385,3.9896488
2.0238216,4.008509
2.0117764,4.037566
1.9998028,4.0377584
1.9879006,4.085328
1.9760691,4.123763
1.9643079,4.1551123
1.9526169,4.178502
1.9409955,4.2349677
1.9294431,4.2271814
1.9179596,4.275224
1.9065444,4.2741413
1.8951972,4.3089347
1.8839173,4.360192
1.8727047,4.3769846
1.8615594,4.3930407
1.8504798,4.428769
1.8394659,4.4505453
1.8285179,4.4605017
1.8176354,4.511195
1.8068173,4.539813
1.7960637,4.5726595
1.7853739,4.6480646
1.7747478,4.6603355
1.7641851,4.67341
1.753685,4.6889606
1.7432475,4.7028627
1.7328722,4.689086
1.7225585,4.7095685
1.7123064,4.724186
1.7021154,4.762717
1.6919845,4.806695
1.6819143,4.8199205
1.6719041,4.8296556
1.6619537,4.857697
1.6520622,4.888541
1.6422291,4.893033
1.6324553,4.916987
1.6227394,4.944635
1.6130813,4.9679337
1.6034806,5.0003977
1.5939372,5.051308
1.5844505,5.096228
1.5750202,5.144273
1.5656462,5.190854
1.5563277,5.203258
1.5470649,5.22126
1.5378572,5.2241697
1.5287046,5.27256
1.5196058,5.28309
1.5105615,5.307025
1.5015709,5.324282
1.4926344,5.3551855
1.4837507,5.34513
1.4749194,5.3396907
1.466141,5.347872
1.4574152,5.336014
1.4487412,5.337867
1.4401187,5.306249
1.4315474,5.3167
1.4230273,5.2923613
1.4145577,5.2624044
1.4061385,5.233966
1.3977697,5.210196
1.3894506,5.1796784
1.3811809,5.183334
1.3729603,5.1836715
1.3647891,5.189149
