energy,intensity
97.76732,0.0021207726
92.828835,0.002306659
88.18945,0.0024225118
83.8307,0.0026004794
79.735245,0.0027461995
75.88682,0.002859932
72.27017,0.0030834912
68.87099,0.003320089
65.67586,0.0035184922
62.672165,0.0037103132
59.848106,0.0039663375
57.19261,0.004175909
54.69525,0.0045171506
52.346306,0.0048216507
50.136597,0.005082471
48.057564,0.005372909
46.10113,0.0055904156
44.25976,0.005943397
42.52636,0.0061173043
40.894283,0.006325905
39.357292,0.006659108
37.909534,0.006913418
36.545517,0.0071051735
35.260098,0.007309238
34.04844,0.0074555227
32.906017,0.0078026946
31.828575,0.0081885895
30.812122,0.008490166
29.85292,0.008698052
28.947456,0.009037063
28.092442,0.009225891
27.284779,0.009339193
26.521572,0.009699275
25.800108,0.009970501
25.117828,0.010164184
24.472345,0.010372888
23.861408,0.010739983
23.282911,0.011090062
22.734882,0.011357388
22.215462,0.01153571
21.722916,0.0119310785
21.255604,0.011783143
20.812004,0.01208085
20.390675,0.012330474
19.990267,0.012747094
19.609518,0.012945188
19.247244,0.013616728
18.902327,0.013839568
18.573725,0.014006167
18.260456,0.014352569
17.961601,0.014807144
17.676302,0.014580225
17.403744,0.014919907
17.143167,0.015316241
16.893862,0.015341537
16.655159,0.015706846
16.426428,0.016249968
16.207083,0.016141092
15.996571,0.015868958
15.794373,0.016164128
15.6,0.01683134
15.412999,0.017066978
15.232939,0.017650349
15.05942,0.017853724
14.892062,0.018444726
14.730514,0.018318137
14.574441,0.0186805
14.423531,0.018607251
14.277491,0.018865438
14.136047,0.018985664
13.998942,0.019171609
13.865933,0.019530201
13.73679,0.020066472
13.611302,0.020465018
13.48927,0.02086564
13.3705015,0.021377077
13.254824,0.021198155
13.142069,0.021232579
13.032082,0.021820683
12.924716,0.021702088
12.819836,0.02210637
12.717309,0.022551244
12.617017,0.023152858
12.518845,0.023102242
12.422684,0.02386602
12.328438,0.024362825
12.23601,0.024467673
12.145311,0.024331294
12.056257,0.02459138
11.968773,0.025054462
11.882783,0.02535807
11.798219,0.026361044
11.7150135,0.026341507
11.633108,0.02686012
11.552444,0.027047666
11.472969,0.027235031
11.394629,0.02742228
11.317378,0.02778068
11.241171,0.02801211
11.165965,0.028287554
11.091721,0.027690725
11.018401,0.027523253
10.945969,0.027395578
10.874393,0.02788774
10.803641,0.028339418
10.733684,0.029381653
10.664492,0.03057165
10.596042,0.031500652
10.528306,0.03211744
10.461264,0.032786354
10.394891,0.032809284
10.329167,0.032173835
10.264075,0.032330673
10.199594,0.031965107
10.135705,0.031832024
10.072394,0.03275355
10.0096445,0.032765288
9.947442,0.03272667
9.885775,0.03342087
9.824624,0.033283718
9.763982,0.032845434
9.703834,0.033498332
9.64417,0.034559507
9.584979,0.033863172
9.526253,0.034377046
9.467979,0.035407297
9.410151,0.036294144
9.3527565,0.0358953
9.295791,0.036375847
9.239244,0.036808204
9.183109,0.036980458
9.12738,0.03768393
9.07205,0.03764677
9.01711,0.037500065
8.962557,0.03762022
8.908382,0.037631474
8.854581,0.038133685
8.801149,0.038915623
8.74808,0.03926246
8.69537,0.040113308
8.643014,0.040356293
8.591007,0.04026226
8.539344,0.039598156
8.48802,0.040237106
8.437034,0.040135756
8.38638,0.040666997
8.336055,0.04120308
8.286055,0.0418025
8.236377,0.042231087
8.187016,0.043018263
8.13797,0.042563174
8.089236,0.042759705
8.04081,0.043378722
7.9926906,0.044064157
7.9448724,0.04451229
7.8973556,0.046559047
7.850135,0.04659226
7.80321,0.047617443
7.7565756,0.04784127
7.710231,0.04743769
7.664174,0.047912393
7.6184006,0.047182847
7.57291,0.04759421
7.5276995,0.047622636
7.482766,0.048620764
7.4381084,0.04813112
7.3937244,0.048747655
7.349611,0.049040243
7.3057675,0.049732402
7.2621903,0.049630575
7.218879,0.049995456
7.175831,0.050092854
7.133044,0.049985833
7.090517,0.05001234
7.0482473,0.050174814
7.0062337,0.05130542
6.9644732,0.051613066
6.9229665,0.051922508
6.881709,0.052444987
6.840701,0.0536092
6.79994,0.053289365
6.7594247,0.05360877
6.719154,0.05371378
6.679125,0.053527974
6.6393356,0.05370283
6.599786,0.053877845
6.560474,0.054274537
6.5213976,0.055045463
6.482556,0.054852173
6.443947,0.054729752
6.4055705,0.055965178
6.367422,0.057365622
6.3295035,0.056943916
6.291812,0.058055
6.254346,0.057550743
6.217103,0.057739653
6.1800838,0.05730164
6.1432858,0.057566013
6.106708,0.057117514
6.0703483,0.057699047
6.034206,0.057562947
5.9982805,0.05815
5.9625683,0.058579538
5.92707,0.058521703
5.891784,0.057885505
5.856708,0.058728483
5.8218417,0.058331303
5.787183,0.05784354
5.752732,0.05802152
5.718485,0.05845372
5.684444,0.05820721
5.650605,0.058470048
5.616968,0.058906436
5.583532,0.05943272
5.550295,0.059614047
5.5172563,0.059268594
5.4844136,0.059800174
5.4517684,0.059891682
5.419316,0.06159121
5.387058,0.06178017
5.3549924,0.06242151
5.3231173,0.06261327
5.2914324,0.06289665
5.2599363,0.06299696
5.228627,0.06346684
5.1975055,0.06300801
5.166569,0.063197754
5.135817,0.06338752
5.105248,0.06300794
5.0748606,0.0631943
5.044654,0.0648211
5.0146275,0.063953355
4.9847803,0.065210946
4.955111,0.06716568
4.9256177,0.067174435
4.8963003,0.06658725
4.867158,0.06738408
4.8381886,0.0662856
4.809392,0.06638031
4.7807665,0.06799376
4.7523127,0.06768728
4.724026,0.06891297
4.695909,0.070460394
4.667959,0.07005203
4.640177,0.0674438
4.612559,0.06805768
4.585105,0.068359524
4.557816,0.06898138
4.530688,0.07046367
4.5037217,0.07142341
4.4769163,0.07098537
4.450271,0.070648395
4.423784,0.06833366
4.3974533,0.06918349
4.3712807,0.06860029
4.345264,0.07124079
4.3194017,0.07256458
4.293693,0.07311189
4.2681384,0.07264161
4.2427354,0.07216309
4.217483,0.07133165
4.192381,0.071527645
4.16743,0.07195589
4.142626,0.07332226
4.11797,0.07482004
4.09346,0.0764515
4.069097,0.07833789
4.0448785,0.07724995
4.0208044,0.075664245
3.9968739,0.07708692
3.9730854,0.0776704
3.949438,0.07789013
3.925932,0.079590455
3.9025662,0.080563515
3.8793387,0.07979711
3.85625,0.078767374
3.8332987,0.07999726
3.8104842,0.07869633
3.7878044,0.07712121
3.7652605,0.08002753
3.742851,0.08205985
3.7205741,0.08150952
3.6984303,0.08147361
3.6764178,0.08327913
3.6545374,0.08364518
3.632786,0.08401266
3.6111646,0.08384492
3.5896719,0.08799072
3.5683074,0.08770296
3.5470698,0.089047536
3.525958,0.08861895
3.5049734,0.08914952
3.484112,0.08787573
3.4633756,0.088401884
3.4427624,0.088931166
3.4222722,0.09002986
3.4019039,0.091992944
3.3816562,0.09211398
3.3615294,0.09295373
3.3415227,0.09307534
3.321635,0.09392431
3.3018653,0.09492683
3.2822137,0.0947572
3.2626784,0.095324546
3.24326,0.09798647
3.2239568,0.09797209
3.2047691,0.098860994
3.1856952,0.099148795
3.1667347,0.09958945
3.1478868,0.09787731
3.1291518,0.09861814
3.1105278,0.099364355
3.0920146,0.10042931
3.0736122,0.0997697
3.0553188,0.10052561
3.037134,0.101287015
3.0190578,0.10028884
3.0010896,0.09992076
2.9832275,0.10116858
2.9654722,0.10324458
2.9478228,0.10468442
2.930278,0.104153946
2.9128375,0.10677333
2.895501,0.10674337
2.878268,0.10755081
2.8611374,0.10768678
2.8441086,0.10850189
2.8271809,0.11052235
2.8103547,0.11376975
2.7936282,0.112716824
2.7770011,0.1137406
2.7604735,0.117580466
2.7440438,0.11563633
2.7277122,0.115795866
2.711477,0.117561184
2.6953394,0.12042187
2.6792972,0.118249916
2.663351,0.12023116
2.6474993,0.12168297
2.631742,0.123515986
2.6160786,0.12444071
2.6005085,0.12574466
2.5850313,0.12293684
2.5696461,0.12404997
2.5543516,0.12725823
2.5391486,0.12592149
2.524037,0.1266754
2.5090146,0.12839924
2.4940815,0.1301392
2.4792366,0.13091844
2.4644816,0.1313091
2.4498136,0.13051334
2.4352329,0.13169263
2.420739,0.13148052
2.4063315,0.13387829
2.3920097,0.13528746
2.377773,0.13406008
2.363621,0.13486275
2.3495533,0.13525788
2.3355696,0.13689737
2.3216686,0.13750839
2.3078513,0.13833165
2.294115,0.13683708
2.280461,0.1378688
2.2668889,0.13869426
2.253397,0.13995464
2.2399855,0.1423065
2.2266536,0.14294097
2.213401,0.1446723
2.2002275,0.14619903
2.1871324,0.14640988
2.174115,0.14617239
2.1611753,0.14704758
2.1483126,0.1463495
2.1355262,0.14722575
2.1228166,0.14902005
2.1101818,0.15106018
2.0976226,0.15242654
2.0851378,0.1547332
2.0727284,0.1601003
2.060392,0.1617643
2.0481286,0.15942141
2.0359385,0.16323131
2.0238216,0.16396923
2.0117764,0.1610981
1.9998028,0.16521186
1.9879006,0.16352037
1.9760691,0.1630285
1.9643079,0.16203164
1.9526169,0.15903218
1.9409955,0.15998437
1.9294431,0.16144441
1.9179596,0.16064294
1.9065444,0.16160479
1.8951972,0.16410607
1.8839173,0.16457434
1.8727047,0.16840526
1.8615594,0.17227612
1.8504798,0.1788053
1.8394659,0.18145609
1.8285179,0.18466201
1.8176354,0.17963757
1.8068173,0.180445
1.7960637,0.1774795
1.7853739,0.17745677
1.7747478,0.17879225
1.7641851,0.17821513
1.753685,0.18038715
1.7432475,0.18063352
1.7328722,0.18339238
1.7225585,0.18533413
1.7123064,0.18983883
1.7021154,0.18841392
1.6919845,0.19040103
1.6819143,0.191541
1.6719041,0.19239807
1.6619537,0.19413298
1.6520622,0.19910742
1.6422291,0.20265952
1.6324553,0.20505987
1.6227394,0.20598912
1.6130813,0.2075228
1.6034806,0.20755683
1.5939372,0.21092704
1.5844505,0.2112727
1.5750202,0.2149983
1.5656462,0.21442904
1.5563277,0.21571293
1.5470649,0.21512567
1.5378572,0.21641368
1.5287046,0.21834321
1.5196058,0.22060691
1.5105615,0.21743792
1.5015709,0.22228867
1.4926344,0.22394413
1.4837507,0.22299944
1.4749194,0.22367777
1.466141,0.22600828
1.4574152,0.22835864
1.4487412,0.22838832
1.4401187,0.22773741
1.4315474,0.22910097
1.4230273,0.22979182
1.4145577,0.23253757
1.4061385,0.23392987
1.3977697,0.2387963
1.3894506,0.2409234
1.3811809,0.2402614
1.3729603,0.23852436
1.3647891,0.24030739
