energy,intensity
97.76732,0.0021851887
92.828835,0.0022649097
88.18945,0.0023620867
83.8307,0.0024849027
79.735245,0.0025760813
75.88682,0.0026684185
72.27017,0.0028890974
68.87099,0.003031691
65.67586,0.0033045798
62.672165,0.0035093378
59.848106,0.00373969
57.19261,0.0038286224
54.69525,0.004092007
52.346306,0.004414447
50.136597,0.004686309
48.057564,0.004979769
46.10113,0.0052331327
44.25976,0.0054946323
42.52636,0.0056502474
40.894283,0.0059468243
39.357292,0.006191371
37.909534,0.006466155
36.545517,0.006707496
35.260098,0.0069245417
34.04844,0.007156732
32.906017,0.0075965845
31.828575,0.008021165
30.812122,0.008301495
29.85292,0.008616913
28.947456,0.009020329
28.092442,0.009329359
27.284779,0.0095345
26.521572,0.009808872
25.800108,0.010064385
25.117828,0.010279906
24.472345,0.010452071
23.861408,0.010983614
23.282911,0.011339744
22.734882,0.012294958
22.215462,0.012582428
21.722916,0.013113036
21.255604,0.012558051
20.812004,0.013244707
20.390675,0.013328317
19.990267,0.014152667
19.609518,0.014378052
19.247244,0.015328256
18.902327,0.015633587
18.573725,0.015884086
18.260456,0.016077
17.961601,0.01639844
17.676302,0.016060175
17.403744,0.016395196
17.143167,0.01689873
16.893862,0.017119434
16.655159,0.017684747
16.426428,0.01860931
16.207083,0.0184128
15.996571,0.018412834
15.794373,0.0187099
15.6,0.019129345
15.412999,0.01948716
15.232939,0.020099137
15.05942,0.020266386
14.892062,0.020851975
14.730514,0.020653127
14.574441,0.020641617
14.423531,0.020555304
14.277491,0.02107093
14.136047,0.021076143
13.998942,0.021559408
13.865933,0.022010779
13.73679,0.022746703
13.611302,0.023454692
13.48927,0.023954183
13.3705015,0.023949573
13.254824,0.024012392
13.142069,0.023776066
13.032082,0.023753691
12.924716,0.023763603
12.819836,0.024335898
12.717309,0.024874937
12.617017,0.02553342
12.518845,0.025849747
12.422684,0.026439808
12.328438,0.027034877
12.23601,0.02712032
12.145311,0.026564984
12.056257,0.026761208
11.968773,0.026794912
11.882783,0.027641116
11.798219,0.028208781
11.7150135,0.028574543
11.633108,0.028692437
11.552444,0.028976649
11.472969,0.028501779
11.394629,0.028272582
11.317378,0.028593985
11.241171,0.028960207
11.165965,0.028764797
11.091721,0.02799646
11.018401,0.028226726
10.945969,0.027838157
10.874393,0.027887737
10.803641,0.027846167
10.733684,0.028975459
10.664492,0.029753989
10.596042,0.030403389
10.528306,0.030875077
10.461264,0.031628646
10.394891,0.030805308
10.329167,0.030110208
10.264075,0.029876376
10.199594,0.029495293
10.135705,0.02925105
10.072394,0.030396838
10.0096445,0.030732583
9.947442,0.030437754
9.885775,0.030725634
9.824624,0.030818261
9.763982,0.030166201
9.703834,0.030502953
9.64417,0.031696297
9.584979,0.031234987
9.526253,0.030969854
9.467979,0.032030303
9.410151,0.03294788
9.3527565,0.033201862
9.295791,0.03371801
9.239244,0.03324274
9.183109,0.033393193
9.12738,0.033597086
9.07205,0.0329476
9.01711,0.032664817
8.962557,0.033187956
8.908382,0.033009112
8.854581,0.03359266
8.801149,0.034402072
8.74808,0.034555398
8.69537,0.03593484
8.643014,0.035984363
8.591007,0.03592025
8.539344,0.035343338
8.48802,0.03641315
8.437034,0.03605902
8.38638,0.035872452
8.336055,0.036612045
8.286055,0.037534554
8.236377,0.037408043
8.187016,0.037870273
8.13797,0.037562743
8.089236,0.037549496
8.04081,0.03819738
7.9926906,0.039094057
7.9448724,0.03963423
7.8973556,0.0407315
7.850135,0.040421106
7.80321,0.041719593
7.7565756,0.0422827
7.710231,0.04128022
7.664174,0.041844327
7.6184006,0.041650627
7.57291,0.041069202
7.5276995,0.041444566
7.482766,0.042146627
7.4381084,0.042008888
7.3937244,0.04252315
7.349611,0.042844296
7.3057675,0.043963443
7.2621903,0.04422725
7.218879,0.044291273
7.175831,0.044624496
7.133044,0.044756338
7.090517,0.044409864
7.0482473,0.044951133
7.0062337,0.046396147
6.9644732,0.04667435
6.9229665,0.046674278
6.881709,0.048432413
6.840701,0.049147654
6.79994,0.048801083
6.7594247,0.048376903
6.719154,0.04902734
6.679125,0.048668385
6.6393356,0.048741158
6.599786,0.04837262
6.560474,0.048071735
6.5213976,0.048359774
6.482556,0.047603317
6.443947,0.048339598
6.4055705,0.05014177
6.367422,0.05264855
6.3295035,0.052122053
6.291812,0.053050257
6.254346,0.052361112
6.217103,0.05189556
6.1800838,0.050481882
6.1432858,0.0510997
6.106708,0.051961076
6.0703483,0.05307036
6.034206,0.052585408
5.9982805,0.05330417
5.9625683,0.05337969
5.92707,0.052473374
5.891784,0.052458744
5.856708,0.05343465
5.8218417,0.053671446
5.787183,0.052820947
5.752732,0.05237937
5.718485,0.05260835
5.684444,0.052667722
5.650605,0.052983116
5.616968,0.053300403
5.583532,0.05396664
5.550295,0.054202534
5.5172563,0.053649057
5.4844136,0.054500315
5.4517684,0.055004377
5.419316,0.05649586
5.387058,0.056384522
5.3549924,0.05780774
5.3231173,0.05697081
5.2914324,0.057952806
5.2599363,0.05848403
5.228627,0.05855627
5.1975055,0.058906894
5.166569,0.058884554
5.135817,0.058482528
5.105248,0.05864293
5.0748606,0.058230396
5.044654,0.05934732
5.0146275,0.05931625
4.9847803,0.061615117
4.955111,0.063059464
4.9256177,0.06324036
4.8963003,0.063124314
4.867158,0.063800864
4.8381886,0.061980046
4.809392,0.061948236
4.7807665,0.0646498
4.7523127,0.064323306
4.724026,0.066246696
4.695909,0.067056015
4.667959,0.0659008
4.640177,0.06483374
4.612559,0.06543199
4.585105,0.06540115
4.557816,0.065792724
4.530688,0.066614375
4.5037217,0.06819645
4.4769163,0.068604775
4.450271,0.06912438
4.423784,0.068224154
4.3974533,0.06720051
4.3712807,0.0677137
4.345264,0.06856506
4.3194017,0.06964854
4.293693,0.0706297
4.2681384,0.07048507
4.2427354,0.07045037
4.217483,0.070412725
4.192381,0.06990989
4.16743,0.071142174
4.142626,0.0728545
4.11797,0.07364363
4.09346,0.074913
4.069097,0.076075844
4.0448785,0.07509414
4.0208044,0.07373648
3.9968739,0.07478401
3.9730854,0.07669496
3.949438,0.076172866
3.925932,0.07823309
3.9025662,0.079322174
3.8793387,0.07904784
3.85625,0.07801362
3.8332987,0.07936536
3.8104842,0.07869634
3.7878044,0.078400165
3.7652605,0.078354925
3.742851,0.079600655
3.7205741,0.07838456
3.6984303,0.078853875
3.6764178,0.08143434
3.6545374,0.08284984
3.632786,0.0836126
3.6111646,0.083979085
3.5896719,0.08718098
3.5683074,0.08661687
3.5470698,0.08686232
3.525958,0.08642064
3.5049734,0.088458434
3.484112,0.08815383
3.4633756,0.08868162
3.4427624,0.089071885
3.4222722,0.08875585
3.4019039,0.088717654
3.3816562,0.08896234
3.3615294,0.08891853
3.3415227,0.08916095
3.321635,0.09013233
3.3018653,0.09081871
3.2822137,0.09018169
3.2626784,0.09250342
3.24326,0.09380412
3.2239568,0.094365746
3.2047691,0.09629122
3.1856952,0.09686776
3.1667347,0.09607092
3.1478868,0.09356824
3.1291518,0.094592914
3.1105278,0.09593799
3.0920146,0.09572904
3.0736122,0.094568424
3.0553188,0.09624456
3.037134,0.096342295
3.0190578,0.09627729
3.0010896,0.09588518
2.9832275,0.097758405
2.9654722,0.098343715
2.9478228,0.098932534
2.930278,0.09969021
2.9128375,0.101617604
2.895501,0.10122218
2.878268,0.102501474
2.8611374,0.102437906
2.8441086,0.10219957
2.8271809,0.1034969
2.8103547,0.10549559
2.7936282,0.10456654
2.7770011,0.103622586
2.7604735,0.10740187
2.7440438,0.1075153
2.7277122,0.109224625
2.711477,0.109521285
2.6953394,0.11179463
2.6792972,0.11137913
2.663351,0.11222787
2.6474993,0.11216792
2.631742,0.11283951
2.6160786,0.112774394
2.6005085,0.11493992
2.5850313,0.11319184
2.5696461,0.1142466
2.5543516,0.118344456
2.5391486,0.11790829
2.524037,0.11938195
2.5090146,0.12183447
2.4940815,0.12178698
2.4792366,0.12017141
2.4644816,0.121873744
2.4498136,0.12082372
2.4352329,0.12134821
2.420739,0.12207477
2.4063315,0.12381227
2.3920097,0.12597126
2.377773,0.124688104
2.363621,0.12809913
2.3495533,0.12618569
2.3355696,0.12880798
2.3216686,0.12811859
2.3078513,0.12888566
2.294115,0.12754568
2.280461,0.13000883
2.2668889,0.12886386
2.253397,0.12963541
2.2399855,0.13235801
2.2266536,0.13271536
2.213401,0.1332911
2.2002275,0.13210757
2.1871324,0.13312002
2.174115,0.13347144
2.1611753,0.136288
2.1483126,0.13778049
2.1355262,0.13815175
2.1228166,0.13989171
2.1101818,0.14233635
2.0976226,0.14272666
2.0851378,0.1440459
2.0727284,0.15238746
2.060392,0.15282965
2.0481286,0.14972368
2.0359385,0.15133399
2.0238216,0.15176131
2.0117764,0.14809465
1.9998028,0.15237279
1.9879006,0.15133555
1.9760691,0.15199648
1.9643079,0.1469876
1.9526169,0.14886005
1.9409955,0.1490026
1.9294431,0.14939256
1.9179596,0.1480138
1.9065444,0.14966227
1.8951972,0.14876907
1.8839173,0.14965981
1.8727047,0.15521222
1.8615594,0.16004504
1.8504798,0.16493021
1.8394659,0.168288
1.8285179,0.16956054
1.8176354,0.16871005
1.8068173,0.1673071
1.7960637,0.16642076
1.7853739,0.1649751
1.7747478,0.1632332
1.7641851,0.15954235
1.753685,0.1624313
1.7432475,0.16312595
1.7328722,0.16494134
1.7225585,0.16564769
1.7123064,0.16890281
1.7021154,0.16735257
1.6919845,0.16749564
1.6819143,0.17022668
1.6719041,0.17095612
1.6619537,0.17372862
1.6520622,0.17916733
1.6422291,0.18289505
1.6324553,0.18488035
1.6227394,0.19076386
1.6130813,0.18650022
1.6034806,0.18701266
1.5939372,0.18904413
1.5844505,0.18803574
1.5750202,0.19008432
1.5656462,0.19833915
1.5563277,0.1967252
1.5470649,0.19696365
1.5378572,0.19719791
1.5287046,0.19584338
1.5196058,0.19255288
1.5105615,0.1898573
1.5015709,0.19583344
1.4926344,0.19992691
1.4837507,0.19818544
1.4749194,0.20134284
1.466141,0.20453091
1.4574152,0.20309626
1.4487412,0.20397787
1.4401187,0.2035172
1.4315474,0.20405892
1.4230273,0.20902544
1.4145577,0.20787968
1.4061385,0.20912433
1.3977697,0.2155752
1.3894506,0.21791188
1.3811809,0.21325393
1.3729603,0.21347226
1.3647891,0.21439536
