energy,intensity
97.76732,0.0019671652
92.828835,0.0020613808
88.18945,0.0020379864
83.8307,0.0021497295
79.735245,0.0022722979
75.88682,0.0023556133
72.27017,0.002486903
68.87099,0.00277143
65.67586,0.0030169042
62.672165,0.0032156045
59.848106,0.003326867
57.19261,0.0033881613
54.69525,0.0036845775
52.346306,0.003942462
50.136597,0.0042804843
48.057564,0.0047378372
46.10113,0.005043983
44.25976,0.0052209953
42.52636,0.005308499
40.894283,0.0055440515
39.357292,0.005895957
37.909534,0.0060572275
36.545517,0.0061772587
35.260098,0.0061688875
34.04844,0.006317275
32.906017,0.006654373
31.828575,0.0070774984
30.812122,0.007405311
29.85292,0.007805527
28.947456,0.008250504
28.092442,0.008380902
27.284779,0.008540211
26.521572,0.00874944
25.800108,0.00914432
25.117828,0.009334848
24.472345,0.009541473
23.861408,0.0097857695
23.282911,0.010153753
22.734882,0.010419819
22.215462,0.010728865
21.722916,0.010771422
21.255604,0.010985444
20.812004,0.011312703
20.390675,0.011380148
19.990267,0.011971605
19.609518,0.012228756
19.247244,0.012836471
18.902327,0.013301361
18.573725,0.013510603
18.260456,0.013264851
17.961601,0.01351253
17.676302,0.013456562
17.403744,0.013583795
17.143167,0.014157633
16.893862,0.01450994
16.655159,0.015096025
16.426428,0.015512674
16.207083,0.015483494
15.996571,0.01538441
15.794373,0.015796063
15.6,0.016117092
15.412999,0.016218346
15.232939,0.016664473
15.05942,0.017017333
14.892062,0.017533876
14.730514,0.01749596
14.574441,0.017915992
14.423531,0.017498877
14.277491,0.017610006
14.136047,0.01761486
13.998942,0.017510531
13.865933,0.018097753
13.73679,0.018761624
13.611302,0.018756635
13.48927,0.019393194
13.3705015,0.019746622
13.254824,0.019918954
13.142069,0.019536922
13.032082,0.020110715
12.924716,0.019678062
12.819836,0.02014136
12.717309,0.02034183
12.617017,0.020925887
12.518845,0.02074171
12.422684,0.021643203
12.328438,0.021847954
12.23601,0.021933805
12.145311,0.021938054
12.056257,0.022100095
11.968773,0.022099731
11.882783,0.022300426
11.798219,0.023035116
11.7150135,0.022909254
11.633108,0.02348699
11.552444,0.023944523
11.472969,0.02406817
11.394629,0.023765976
11.317378,0.024399059
11.241171,0.024305891
11.165965,0.024512984
11.091721,0.023716189
11.018401,0.023742104
10.945969,0.02354515
10.874393,0.02383377
10.803641,0.024079539
10.733684,0.024597542
10.664492,0.025756506
10.596042,0.026425803
10.528306,0.0268719
10.461264,0.027646123
10.394891,0.027263395
10.329167,0.026498858
10.264075,0.026572512
10.199594,0.026550515
10.135705,0.026574485
10.072394,0.02751106
10.0096445,0.02758673
9.947442,0.027320927
9.885775,0.027687373
9.824624,0.02761316
9.763982,0.026891584
9.703834,0.02730788
9.64417,0.028330762
9.584979,0.02734325
9.526253,0.02751181
9.467979,0.028755637
9.410151,0.02965309
9.3527565,0.029161695
9.295791,0.029965777
9.239244,0.03009674
9.183109,0.030544488
9.12738,0.030571753
9.07205,0.030491212
9.01711,0.03040837
8.962557,0.030701557
8.908382,0.030235695
8.854581,0.030474124
8.801149,0.030769212
8.74808,0.031122006
8.69537,0.032090645
8.643014,0.032004785
8.591007,0.031634632
8.539344,0.031542372
8.48802,0.032360908
8.437034,0.0317526
8.38638,0.031886622
8.336055,0.03289273
8.286055,0.033208147
8.236377,0.032467354
8.187016,0.033373177
8.13797,0.032681372
8.089236,0.03293815
8.04081,0.033136524
7.9926906,0.034366407
7.9448724,0.034939103
7.8973556,0.036621545
7.850135,0.036471564
7.80321,0.037125465
7.7565756,0.037536036
7.710231,0.03688202
7.664174,0.037230078
7.6184006,0.036499936
7.57291,0.03575963
7.5276995,0.036103114
7.482766,0.03690258
7.4381084,0.036993876
7.3937244,0.037674595
7.349611,0.038164385
7.3057675,0.038592342
7.2621903,0.038690504
7.218879,0.038989745
7.175831,0.039426174
7.133044,0.039391007
7.090517,0.039285652
7.0482473,0.039727453
7.0062337,0.040103972
6.9644732,0.040135764
6.9229665,0.040446382
6.881709,0.04139282
6.840701,0.04164096
6.79994,0.04189057
6.7594247,0.042069986
6.719154,0.04261053
6.679125,0.042213123
6.6393356,0.042903893
6.599786,0.042500373
6.560474,0.042459674
6.5213976,0.042639803
6.482556,0.042446908
6.443947,0.042701233
6.4055705,0.044242747
6.367422,0.04534471
6.3295035,0.045463283
6.291812,0.046197608
6.254346,0.04531249
6.217103,0.045272253
6.1800838,0.04515149
6.1432858,0.045500807
6.106708,0.045535363
6.0703483,0.046286933
6.034206,0.04592191
5.9982805,0.046196945
5.9625683,0.045742404
5.92707,0.045444228
5.891784,0.045223057
5.856708,0.045742042
5.8218417,0.0460992
5.787183,0.04578931
5.752732,0.046400372
5.718485,0.04650883
5.684444,0.045594223
5.650605,0.045524325
5.616968,0.04605569
5.583532,0.047112357
5.550295,0.047743615
5.5172563,0.047502685
5.4844136,0.04840546
5.4517684,0.0480733
5.419316,0.049165707
5.387058,0.048560835
5.3549924,0.04966581
5.3231173,0.049417164
5.2914324,0.049987733
5.2599363,0.049826548
5.228627,0.049846955
5.1975055,0.0497726
5.166569,0.05044569
5.135817,0.049804475
5.105248,0.050197586
5.0748606,0.05059362
5.044654,0.051472757
5.0146275,0.052070785
4.9847803,0.05335441
4.955111,0.054358244
4.9256177,0.054978784
4.8963003,0.053724922
4.867158,0.053847536
4.8381886,0.05236763
4.809392,0.05268119
4.7807665,0.054617934
4.7523127,0.05433332
4.724026,0.056299437
4.695909,0.057668164
4.667959,0.055937845
4.640177,0.054497924
4.612559,0.05524434
4.585105,0.054729875
4.557816,0.056545608
4.530688,0.057098035
4.5037217,0.058838256
4.4769163,0.058433082
4.450271,0.05758552
4.423784,0.05606865
4.3974533,0.05585354
4.3712807,0.055523016
4.345264,0.056970336
4.3194017,0.058545146
4.293693,0.05923417
4.2681384,0.05992933
4.2427354,0.059717245
4.217483,0.059155878
4.192381,0.058816753
4.16743,0.05928515
4.142626,0.060575653
4.11797,0.06187947
4.09346,0.06343344
4.069097,0.06500378
4.0448785,0.062279034
4.0208044,0.061808527
3.9968739,0.06326945
3.9730854,0.064501785
3.949438,0.06488799
3.925932,0.066757254
3.9025662,0.0672811
3.8793387,0.067683935
3.85625,0.065576665
3.8332987,0.065969296
3.8104842,0.06433012
3.7878044,0.06420372
3.7652605,0.063944824
3.742851,0.06549256
3.7205741,0.066145115
3.6984303,0.06536226
3.6764178,0.06707133
3.6545374,0.0681357
3.632786,0.068543665
3.6111646,0.068685755
3.5896719,0.071121335
3.5683074,0.07100411
3.5470698,0.07088293
3.525958,0.07075776
3.5049734,0.07131962
3.484112,0.07132951
3.4633756,0.07217622
3.4427624,0.072186224
3.4222722,0.07318465
3.4019039,0.07291081
3.3816562,0.07392039
3.3615294,0.073930636
3.3415227,0.073793374
3.321635,0.07365181
3.3018653,0.07350592
3.2822137,0.07379843
3.2626784,0.075131185
3.24326,0.07677599
3.2239568,0.078137256
3.2047691,0.07845391
3.1856952,0.07694675
3.1667347,0.078631304
3.1478868,0.07648589
3.1291518,0.07802753
3.1105278,0.07942918
3.0920146,0.08068814
3.0736122,0.07912226
3.0553188,0.07912031
3.037134,0.08039159
3.0190578,0.07846598
3.0010896,0.078451514
2.9832275,0.07875884
2.9654722,0.07988385
2.9478228,0.0801978
2.930278,0.07952071
2.9128375,0.08165998
2.895501,0.08164699
2.878268,0.0834823
2.8611374,0.08415148
2.8441086,0.08363332
2.8271809,0.08499084
2.8103547,0.087913
2.7936282,0.08514456
2.7770011,0.08617771
2.7604735,0.0882731
2.7440438,0.08738927
2.7277122,0.087912515
2.711477,0.089332215
2.6953394,0.09202387
2.6792972,0.08859704
2.663351,0.091128305
2.6474993,0.09094201
2.631742,0.090197966
2.6160786,0.09055284
2.6005085,0.09388934
2.5850313,0.09276484
2.5696461,0.09407435
2.5543516,0.09672384
2.5391486,0.09634901
2.524037,0.09635007
2.5090146,0.09808543
2.4940815,0.098284245
2.4792366,0.09848193
2.4644816,0.0986784
2.4498136,0.09788501
2.4352329,0.09906788
2.420739,0.09926079
2.4063315,0.10045905
2.3920097,0.1014656
2.377773,0.10248058
2.363621,0.10165947
2.3495533,0.099381536
2.3355696,0.09935431
2.3216686,0.098905884
2.3078513,0.10138724
2.294115,0.09967146
2.280461,0.101755254
2.2668889,0.10193708
2.253397,0.102117434
2.2399855,0.10359394
2.2266536,0.104866885
2.213401,0.10658911
2.2002275,0.1072273
2.1871324,0.10742631
2.174115,0.10740104
2.1611753,0.10938905
2.1483126,0.10823999
2.1355262,0.10752697
2.1228166,0.107486136
2.1101818,0.10996631
2.0976226,0.10970092
2.0851378,0.11221642
2.0727284,0.11849761
2.060392,0.11662076
2.0481286,0.11353455
2.0359385,0.118021466
2.0238216,0.11681311
2.0117764,0.11630849
1.9998028,0.12039633
1.9879006,0.11746172
1.9760691,0.117919855
1.9643079,0.11615966
1.9526169,0.11338174
1.9409955,0.11530854
1.9294431,0.1165011
1.9179596,0.11517796
1.9065444,0.116375774
1.8951972,0.115283236
1.8839173,0.11571634
1.8727047,0.12158291
1.8615594,0.12491321
1.8504798,0.12723187
1.8394659,0.12773034
1.8285179,0.13034967
1.8176354,0.12793177
1.8068173,0.12842964
1.7960637,0.1273105
1.7853739,0.1256307
1.7747478,0.12747476
1.7641851,0.12768881
1.753685,0.12817709
1.7432475,0.12449817
1.7328722,0.12580271
1.7225585,0.12739964
1.7123064,0.13127455
1.7021154,0.12836054
1.6919845,0.12998806
1.6819143,0.1330706
1.6719041,0.13270833
1.6619537,0.1352518
1.6520622,0.1369413
1.6422291,0.13864626
1.6324553,0.14125688
1.6227394,0.14419241
1.6130813,0.14475541
1.6034806,0.1468306
1.5939372,0.14710186
1.5844505,0.15073436
1.5750202,0.15255961
1.5656462,0.15285419
1.5563277,0.15314685
1.5470649,0.15312438
1.5378572,0.15026103
1.5287046,0.14989306
1.5196058,0.14983419
1.5105615,0.1497692
1.5015709,0.15453742
1.4926344,0.15676087
1.4837507,0.15737295
1.4749194,0.16127135
1.466141,0.15926316
1.4574152,0.1585547
1.4487412,0.15883522
1.4401187,0.15675871
1.4315474,0.15600522
1.4230273,0.15727973
1.4145577,0.16130368
1.4061385,0.16468112
1.3977697,0.16913293
1.3894506,0.16875097
1.3811809,0.16905986
1.3729603,0.163368
1.3647891,0.16576596
