energy,intensity
97.76732,0.0063623176
92.828835,0.0066486043
88.18945,0.00703682
83.8307,0.0074258144
79.735245,0.007837605
75.88682,0.008254223
72.27017,0.008734325
68.87099,0.00910914
65.67586,0.009611312
62.672165,0.009963737
59.848106,0.010312478
57.19261,0.010892939
54.69525,0.011399161
52.346306,0.011947695
50.136597,0.012570903
48.057564,0.0129736075
46.10113,0.013398081
44.25976,0.013802254
42.52636,0.014239537
40.894283,0.014606442
39.357292,0.015103006
37.909534,0.015590333
36.545517,0.01598664
35.260098,0.016390832
34.04844,0.01690298
32.906017,0.017813696
31.828575,0.018020984
30.812122,0.01855258
29.85292,0.018921508
28.947456,0.019647246
28.092442,0.020279713
27.284779,0.020897774
26.521572,0.021718336
25.800108,0.022175444
25.117828,0.022777801
24.472345,0.023279611
23.861408,0.023977164
23.282911,0.024676947
22.734882,0.025484873
22.215462,0.02581906
21.722916,0.025936157
21.255604,0.026392417
20.812004,0.027048064
20.390675,0.027701987
19.990267,0.028499207
19.609518,0.02944783
19.247244,0.030480325
18.902327,0.03080585
18.573725,0.03088138
18.260456,0.031384636
17.961601,0.03182592
17.676302,0.032531444
17.403744,0.032873902
17.143167,0.034108307
16.893862,0.034869734
16.655159,0.035922144
16.426428,0.03609793
16.207083,0.03670604
15.996571,0.036704537
15.794373,0.03757316
15.6,0.037544444
15.412999,0.0387543
15.232939,0.03949862
15.05942,0.04062928
14.892062,0.040923227
14.730514,0.041470684
14.574441,0.04144943
14.423531,0.041782346
14.277491,0.041598972
14.136047,0.04256353
13.998942,0.043188028
13.865933,0.043916747
13.73679,0.04489388
13.611302,0.045628093
13.48927,0.045538083
13.3705015,0.046304926
13.254824,0.046635937
13.142069,0.04707293
13.032082,0.047247168
12.924716,0.048426773
12.819836,0.049427573
12.717309,0.05077839
12.617017,0.0514124
12.518845,0.051815573
12.422684,0.051631723
12.328438,0.052026417
12.23601,0.051904723
12.145311,0.0523721
12.056257,0.053683143
11.968773,0.054520775
11.882783,0.054956086
11.798219,0.055555288
11.7150135,0.056239326
11.633108,0.05667693
11.552444,0.05736621
11.472969,0.058608096
11.394629,0.05935117
11.317378,0.06061239
11.241171,0.061238777
11.165965,0.06316975
11.091721,0.06376729
11.018401,0.06515888
10.945969,0.06629819
10.874393,0.06767009
10.803641,0.06806841
10.733684,0.06918904
10.664492,0.07000136
10.596042,0.0707736
10.528306,0.07201116
10.461264,0.07298205
10.394891,0.07438013
10.329167,0.075041
10.264075,0.075988874
10.199594,0.07651677
10.135705,0.07766823
10.072394,0.07849308
10.0096445,0.07951753
9.947442,0.08006347
9.885775,0.08119996
9.824624,0.08205053
9.763982,0.083155505
9.703834,0.08451964
9.64417,0.08554484
9.584979,0.087185025
9.526253,0.08899384
9.467979,0.09128123
9.410151,0.092974775
9.3527565,0.093959704
9.295791,0.09427493
9.239244,0.09558599
9.183109,0.09543174
9.12738,0.09633287
9.07205,0.09846899
9.01711,0.10019717
8.962557,0.10080706
8.908382,0.10245333
8.854581,0.103677675
8.801149,0.10480248
8.74808,0.10615816
8.69537,0.108417355
8.643014,0.10890594
8.591007,0.110411055
8.539344,0.112667516
8.48802,0.1139766
8.437034,0.114493124
8.38638,0.11547348
8.336055,0.1161706
8.286055,0.118157834
8.236377,0.11987042
8.187016,0.120474786
8.13797,0.12191521
8.089236,0.1230689
8.04081,0.123388335
7.9926906,0.12437365
7.9448724,0.12579294
7.8973556,0.12612042
7.850135,0.1280516
7.80321,0.12969081
7.7565756,0.12978351
7.710231,0.13024947
7.664174,0.13204351
7.6184006,0.13283686
7.57291,0.13389069
7.5276995,0.13649677
7.482766,0.13783434
7.4381084,0.13905269
7.3937244,0.14113234
7.349611,0.14112253
7.3057675,0.14230095
7.2621903,0.14368851
7.218879,0.14455062
7.175831,0.14656548
7.133044,0.14846335
7.090517,0.14955877
7.0482473,0.15107428
7.0062337,0.15253337
6.9644732,0.15344802
6.9229665,0.15443799
6.881709,0.15571587
6.840701,0.15679097
6.79994,0.15830077
6.7594247,0.16025299
6.719154,0.15991566
6.679125,0.16109163
6.6393356,0.16205706
6.599786,0.16354203
6.560474,0.16526042
6.5213976,0.16669637
6.482556,0.16844249
6.443947,0.16975242
6.4055705,0.17016438
6.367422,0.17164035
6.3295035,0.17427592
6.291812,0.17454998
6.254346,0.17567307
6.217103,0.17742668
6.1800838,0.17880303
6.1432858,0.17955865
6.106708,0.18142745
6.0703483,0.18355162
6.034206,0.1833665
5.9982805,0.18462627
5.9625683,0.18491958
5.92707,0.18594535
5.891784,0.18862122
5.856708,0.18826202
5.8218417,0.1901384
5.787183,0.19345357
5.752732,0.19604369
5.718485,0.19628589
5.684444,0.19754656
5.650605,0.19795798
5.616968,0.19793598
5.583532,0.19799338
5.550295,0.19970271
5.5172563,0.20002054
5.4844136,0.201395
5.4517684,0.20180124
5.419316,0.2036354
5.387058,0.20377566
5.3549924,0.20391026
5.3231173,0.20494924
5.2914324,0.20745821
5.2599363,0.20897678
5.228627,0.2099502
5.1975055,0.21055487
5.166569,0.21209693
5.135817,0.21289529
5.105248,0.21284156
5.0748606,0.2155479
5.044654,0.21799095
5.0146275,0.21890983
4.9847803,0.21973467
4.955111,0.22183247
4.9256177,0.22207887
4.8963003,0.22489275
4.867158,0.22564207
4.8381886,0.22669274
4.809392,0.22714354
4.7807665,0.22819962
4.7523127,0.22885235
4.724026,0.23032522
4.695909,0.23160115
4.667959,0.23246895
4.640177,0.23344323
4.612559,0.2336857
4.585105,0.23550752
4.557816,0.23925593
4.530688,0.24047467
4.5037217,0.24428096
4.4769163,0.24671744
4.450271,0.24819462
4.423784,0.2463954
4.3974533,0.24731994
4.3712807,0.24569768
4.345264,0.24716875
4.3194017,0.25021878
4.293693,0.25149137
4.2681384,0.25311062
4.2427354,0.25599632
4.217483,0.2543128
4.192381,0.25410226
4.16743,0.25434488
4.142626,0.2548153
4.11797,0.25563514
4.09346,0.25645572
4.069097,0.2579912
4.0448785,0.25893706
4.0208044,0.25976452
3.9968739,0.25913808
3.9730854,0.26081157
3.949438,0.2613919
3.925932,0.26295698
3.9025662,0.2642831
3.8793387,0.26549086
3.85625,0.26670358
3.8332987,0.2690587
3.8104842,0.269144
3.7878044,0.26832548
3.7652605,0.2721193
3.742851,0.27374855
3.7205741,0.27642927
3.6984303,0.27742943
3.6764178,0.28106707
3.6545374,0.2794359
3.632786,0.27697507
3.6111646,0.27863342
3.5896719,0.27989686
3.5683074,0.27926466
3.5470698,0.28325856
3.525958,0.2841302
3.5049734,0.28237587
3.484112,0.2828153
3.4633756,0.2864668
3.4427624,0.2852271
3.4222722,0.2852361
3.4019039,0.28765592
3.3816562,0.2899513
3.3615294,0.29024622
3.3415227,0.29227397
3.321635,0.29460725
3.3018653,0.29490402
3.2822137,0.2960793
3.2626784,0.2960703
3.24326,0.3005317
3.2239568,0.30067816
3.2047691,0.30051324
3.1856952,0.30033562
3.1667347,0.30091006
3.1478868,0.29855654
3.1291518,0.29957002
3.1105278,0.29996198
3.0920146,0.3008179
3.0736122,0.30041236
3.0553188,0.30078402
3.037134,0.30146843
3.0190578,0.3029525
3.0010896,0.30299073
2.9832275,0.30480483
2.9654722,0.30450612
2.9478228,0.30632928
2.930278,0.3108086
2.9128375,0.31100643
2.895501,0.3140397
2.878268,0.31726646
2.8611374,0.31747288
2.8441086,0.31204936
2.8271809,0.31494585
2.8103547,0.317521
2.7936282,0.3171678
2.7770011,0.31383333
2.7604735,0.3167653
2.7440438,0.31671995
2.7277122,0.3148866
2.711477,0.31552133
2.6953394,0.31938753
2.6792972,0.31967255
2.663351,0.31922194
2.6474993,0.31985238
2.631742,0.32084703
2.6160786,0.32239774
2.6005085,0.32470062
2.5850313,0.32645723
2.5696461,0.32633802
2.5543516,0.32886106
2.5391486,0.33502743
2.524037,0.33338657
2.5090146,0.336155
2.4940815,0.34224665
2.4792366,0.33843392
2.4644816,0.3388876
2.4498136,0.34170765
2.4352329,0.34554392
2.420739,0.34461102
2.4063315,0.34828484
2.3920097,0.34733233
2.377773,0.34696704
2.363621,0.34924942
2.3495533,0.35257766
2.3355696,0.35033286
2.3216686,0.35222182
2.3078513,0.35538012
2.294115,0.35602984
2.280461,0.35879883
2.2668889,0.36351144
2.253397,0.36289307
2.2399855,0.3646333
2.2266536,0.36833948
2.213401,0.36660525
2.2002275,0.3712222
2.1871324,0.37477383
2.174115,0.3781319
2.1611753,0.38196504
2.1483126,0.3840265
2.1355262,0.3815619
2.1228166,0.38087973
2.1101818,0.38316023
2.0976226,0.38268295
2.0851378,0.38613597
2.0727284,0.38517562
2.060392,0.3851306
2.0481286,0.38388866
2.0359385,0.3847595
2.0238216,0.38825995
2.0117764,0.38817656
1.9998028,0.3924387
1.9879006,0.39430094
1.9760691,0.39445537
1.9643079,0.39558405
1.9526169,0.39968923
1.9409955,0.40333024
1.9294431,0.4047408
1.9179596,0.40766937
1.9065444,0.41290522
1.8951972,0.41358817
1.8839173,0.41786453
1.8727047,0.42450544
1.8615594,0.42678675
1.8504798,0.4254152
1.8394659,0.4303327
1.8285179,0.43105462
1.8176354,0.4301706
1.8068173,0.43140566
1.7960637,0.4299427
1.7853739,0.43088892
1.7747478,0.43019322
1.7641851,0.4311213
1.753685,0.4314927
1.7432475,0.43490988
1.7328722,0.43387952
1.7225585,0.43647736
1.7123064,0.4359786
1.7021154,0.43972734
1.6919845,0.44608238
1.6819143,0.4524976
1.6719041,0.46071222
1.6619537,0.46609405
1.6520622,0.47152385
1.6422291,0.46343246
1.6324553,0.4623493
1.6227394,0.4585497
1.6130813,0.45739108
1.6034806,0.4592233
1.5939372,0.4601492
1.5844505,0.465656
1.5750202,0.46875173
1.5656462,0.47341478
1.5563277,0.4756268
1.5470649,0.48442414
1.5378572,0.48291445
1.5287046,0.48358732
1.5196058,0.48552656
1.5105615,0.4887543
1.5015709,0.49716526
1.4926344,0.5004664
1.4837507,0.5037893
1.4749194,0.5045067
1.466141,0.5075274
1.4574152,0.50391805
1.4487412,0.5099446
1.4401187,0.51703453
1.4315474,0.52419114
1.4230273,0.5307339
1.4145577,0.53630894
1.4061385,0.5377976
1.3977697,0.53963107
1.3894506,0.5397242
1.3811809,0.53559
1.3729603,0.53385705
1.3647891,0.5338587
