energy,intensity
97.76732,0.0054505835
92.828835,0.00575621
88.18945,0.0060755066
83.8307,0.0063798428
79.735245,0.0067500616
75.88682,0.007105143
72.27017,0.0074338964
68.87099,0.0077515626
65.67586,0.008158181
62.672165,0.008471881
59.848106,0.008823078
57.19261,0.009368266
54.69525,0.009734017
52.346306,0.010170814
50.136597,0.010628741
48.057564,0.01101799
46.10113,0.011338455
44.25976,0.011886794
42.52636,0.012371307
40.894283,0.012746579
39.357292,0.013207437
37.909534,0.013660711
36.545517,0.014157323
35.260098,0.014384911
34.04844,0.014726079
32.906017,0.015222613
31.828575,0.015555277
30.812122,0.015958365
29.85292,0.016389985
28.947456,0.016869187
28.092442,0.01755506
27.284779,0.01793267
26.521572,0.018576575
25.800108,0.019058492
25.117828,0.01946046
24.472345,0.019538246
23.861408,0.020221215
23.282911,0.020682028
22.734882,0.021265803
22.215462,0.021305082
21.722916,0.02147594
21.255604,0.02203926
20.812004,0.022718512
20.390675,0.023473041
19.990267,0.024209786
19.609518,0.024630444
19.247244,0.025219887
18.902327,0.025167508
18.573725,0.025012875
18.260456,0.025574634
17.961601,0.02651261
17.676302,0.026748681
17.403744,0.026750056
17.143167,0.027919644
16.893862,0.028417688
16.655159,0.02891223
16.426428,0.029196855
16.207083,0.02983113
15.996571,0.029436313
15.794373,0.030027855
15.6,0.02999829
15.412999,0.03070799
15.232939,0.030975563
15.05942,0.032233205
14.892062,0.032693032
14.730514,0.033084463
14.574441,0.032840446
14.423531,0.033553507
14.277491,0.03376099
14.136047,0.03451004
13.998942,0.035159484
13.865933,0.035706382
13.73679,0.036218394
13.611302,0.037050586
13.48927,0.03713437
13.3705015,0.037428003
13.254824,0.037937384
13.142069,0.03815229
13.032082,0.038622975
12.924716,0.039093748
12.819836,0.039489157
12.717309,0.040264633
12.617017,0.040162336
12.518845,0.040438592
12.422684,0.04075162
12.328438,0.041534685
12.23601,0.04188802
12.145311,0.042081174
12.056257,0.04247237
11.968773,0.04286377
11.882783,0.043255493
11.798219,0.044263557
11.7150135,0.045735803
11.633108,0.045599744
11.552444,0.045834266
11.472969,0.046869587
11.394629,0.046894226
11.317378,0.0471287
11.241171,0.048827264
11.165965,0.049676757
11.091721,0.050446037
11.018401,0.05122139
10.945969,0.0522242
10.874393,0.05319162
10.803641,0.053495135
10.733684,0.054114595
10.664492,0.05437484
10.596042,0.05481754
10.528306,0.055998463
10.461264,0.056774106
10.394891,0.057369642
10.329167,0.05834438
10.264075,0.05857279
10.199594,0.058895595
10.135705,0.05969699
10.072394,0.06007222
10.0096445,0.060642403
9.947442,0.06107031
9.885775,0.06203932
9.824624,0.06257339
9.763982,0.063110866
9.703834,0.06375167
9.64417,0.06525117
9.584979,0.06661442
9.526253,0.06773702
9.467979,0.06917726
9.410151,0.07047756
9.3527565,0.07106544
9.295791,0.07051077
9.239244,0.07130934
9.183109,0.07142873
9.12738,0.07207715
9.07205,0.07315755
9.01711,0.073549554
8.962557,0.07405129
8.908382,0.075208575
8.854581,0.07522786
8.801149,0.07535431
8.74808,0.076420575
8.69537,0.07822095
8.643014,0.077797964
8.591007,0.07809976
8.539344,0.07919631
8.48802,0.08030299
8.437034,0.08032893
8.38638,0.08046751
8.336055,0.08141822
8.286055,0.08196798
8.236377,0.082403556
8.187016,0.08230866
8.13797,0.08310235
8.089236,0.08288436
8.04081,0.08302204
7.9926906,0.083340034
7.9448724,0.08439042
7.8973556,0.08508221
7.850135,0.08633455
7.80321,0.086791635
7.7565756,0.08675134
7.710231,0.08739846
7.664174,0.088050075
7.6184006,0.08768888
7.57291,0.0884715
7.5276995,0.08932462
7.482766,0.089472555
7.4381084,0.09046566
7.3937244,0.09120527
7.349611,0.09129131
7.3057675,0.091573924
7.2621903,0.09272378
7.218879,0.09361564
7.175831,0.09471734
7.133044,0.09684754
7.090517,0.09681352
7.0482473,0.09808145
7.0062337,0.098738745
6.9644732,0.09842651
6.9229665,0.09887669
6.881709,0.09989186
6.840701,0.099924125
6.79994,0.101021804
6.7594247,0.102057345
6.719154,0.10187592
6.679125,0.10219635
6.6393356,0.10258993
6.599786,0.103571706
6.560474,0.1046354
6.5213976,0.1051138
6.482556,0.106042534
6.443947,0.10637718
6.4055705,0.10603132
6.367422,0.106742665
6.3295035,0.10807098
6.291812,0.1083334
6.254346,0.108982354
6.217103,0.11197283
6.1800838,0.11366262
6.1432858,0.1138703
6.106708,0.114552364
6.0703483,0.11619615
6.034206,0.11496532
5.9982805,0.11557312
5.9625683,0.115696594
5.92707,0.11614433
5.891784,0.11733326
5.856708,0.117208816
5.8218417,0.11724507
5.787183,0.1201237
5.752732,0.12227467
5.718485,0.12249866
5.684444,0.12476624
5.650605,0.123970225
5.616968,0.12410889
5.583532,0.12441826
5.550295,0.12542517
5.5172563,0.12608846
5.4844136,0.12666683
5.4517684,0.12733646
5.419316,0.12917168
5.387058,0.12877613
5.3549924,0.12909491
5.3231173,0.12995894
5.2914324,0.13146956
5.2599363,0.13262519
5.228627,0.13360466
5.1975055,0.13477747
5.166569,0.13624085
5.135817,0.13592474
5.105248,0.1367386
5.0748606,0.13860743
5.044654,0.13972548
5.0146275,0.14036891
4.9847803,0.14052913
4.955111,0.14107725
4.9256177,0.14015165
4.8963003,0.1431675
4.867158,0.14362662
4.8381886,0.14598851
4.809392,0.14605682
4.7807665,0.147134
4.7523127,0.14679171
4.724026,0.14685026
4.695909,0.14783269
4.667959,0.14819895
4.640177,0.14825106
4.612559,0.14829852
4.585105,0.14982039
4.557816,0.15220545
4.530688,0.15333065
4.5037217,0.15640004
4.4769163,0.15820214
4.450271,0.15860507
4.423784,0.15736453
4.3974533,0.1579763
4.3712807,0.15692732
4.345264,0.15820135
4.3194017,0.16195248
4.293693,0.1617939
4.2681384,0.16378412
4.2427354,0.1664775
4.217483,0.16494724
4.192381,0.16316159
4.16743,0.16425472
4.142626,0.1650043
4.11797,0.16552168
4.09346,0.16568433
4.069097,0.16858122
4.0448785,0.1703092
4.0208044,0.17000358
3.9968739,0.16908213
3.9730854,0.17021646
3.949438,0.16939567
3.925932,0.17028652
3.9025662,0.17143025
3.8793387,0.17295618
3.85625,0.1738661
3.8332987,0.1742752
3.8104842,0.17481011
3.7878044,0.17483364
3.7652605,0.17652373
3.742851,0.1787455
3.7205741,0.1809876
3.6984303,0.18338111
3.6764178,0.18579681
3.6545374,0.18478824
3.632786,0.18336096
3.6111646,0.18405634
3.5896719,0.18488845
3.5683074,0.18518087
3.5470698,0.18820168
3.525958,0.1897407
3.5049734,0.18866526
3.484112,0.18896064
3.4633756,0.19149078
3.4427624,0.19094875
3.4222722,0.19195046
3.4019039,0.19253011
3.3816562,0.19511548
3.3615294,0.19585134
3.3415227,0.19716893
3.321635,0.20053715
3.3018653,0.20129767
3.2822137,0.20117453
3.2626784,0.20208211
3.24326,0.20627943
3.2239568,0.20691343
3.2047691,0.2058848
3.1856952,0.20559685
3.1667347,0.20743975
3.1478868,0.20637338
3.1291518,0.20698972
3.1105278,0.20822905
3.0920146,0.20853575
3.0736122,0.2097843
3.0553188,0.20913768
3.037134,0.21150643
3.0190578,0.21341464
3.0010896,0.21340102
2.9832275,0.21516594
2.9654722,0.21547404
2.9478228,0.21676414
2.930278,0.21905394
2.9128375,0.22069813
2.895501,0.22235419
2.878268,0.22334886
2.8611374,0.22350089
2.8441086,0.22211376
2.8271809,0.22412904
2.8103547,0.22564332
2.7936282,0.2263007
2.7770011,0.2252134
2.7604735,0.22656175
2.7440438,0.22721213
2.7277122,0.2271517
2.711477,0.22797582
2.6953394,0.23041914
2.6792972,0.23252203
2.663351,0.23154955
2.6474993,0.23128913
2.631742,0.23267394
2.6160786,0.23258562
2.6005085,0.2350959
2.5850313,0.23687829
2.5696461,0.23829655
2.5543516,0.24029231
2.5391486,0.24497451
2.524037,0.24490573
2.5090146,0.24251042
2.4940815,0.24881837
2.4792366,0.24718183
2.4644816,0.24787544
2.4498136,0.24916181
2.4352329,0.2548312
2.420739,0.2529549
2.4063315,0.2548721
2.3920097,0.25457534
2.377773,0.25569212
2.363621,0.25763294
2.3495533,0.2620621
2.3355696,0.26031244
2.3216686,0.2597844
2.3078513,0.2653281
2.294115,0.26290455
2.280461,0.26532844
2.2668889,0.26948148
2.253397,0.27109492
2.2399855,0.27271804
2.2266536,0.27369824
2.213401,0.2729294
2.2002275,0.27544424
2.1871324,0.27731493
2.174115,0.28031233
2.1611753,0.2824389
2.1483126,0.28187498
2.1355262,0.28129423
2.1228166,0.28092447
2.1101818,0.28214738
2.0976226,0.28314385
2.0851378,0.28553617
2.0727284,0.2846747
2.060392,0.28285232
2.0481286,0.2843094
2.0359385,0.28624964
2.0238216,0.2917934
2.0117764,0.29378128
1.9998028,0.29796273
1.9879006,0.29901564
1.9760691,0.3005608
1.9643079,0.30211374
1.9526169,0.30441883
1.9409955,0.3037456
1.9294431,0.30380672
1.9179596,0.3028473
1.9065444,0.30898017
1.8951972,0.31057456
1.8839173,0.31397697
1.8727047,0.3218067
1.8615594,0.3229527
1.8504798,0.32069764
1.8394659,0.32498807
1.8285179,0.32693386
1.8176354,0.32622606
1.8068173,0.3313967
1.7960637,0.33176252
1.7853739,0.33184958
1.7747478,0.33001497
1.7641851,0.33254007
1.753685,0.32900628
1.7432475,0.32986456
1.7328722,0.32652792
1.7225585,0.33017036
1.7123064,0.32960093
1.7021154,0.3298667
1.6919845,0.34186283
1.6819143,0.34563792
1.6719041,0.3494459
1.6619537,0.3585339
1.6520622,0.36009407
1.6422291,0.35605535
1.6324553,0.35284546
1.6227394,0.3528683
1.6130813,0.34807363
1.6034806,0.35348108
1.5939372,0.35073462
1.5844505,0.3561978
1.5750202,0.3558699
1.5656462,0.36140424
1.5563277,0.36294562
1.5470649,0.3713814
1.5378572,0.36730477
1.5287046,0.36918697
1.5196058,0.37203512
1.5105615,0.37522477
1.5015709,0.37972975
1.4926344,0.3852488
1.4837507,0.39310592
1.4749194,0.39710194
1.466141,0.39981
1.4574152,0.4015389
1.4487412,0.40293983
1.4401187,0.40535244
1.4315474,0.40744105
1.4230273,0.41498694
1.4145577,0.41301957
1.4061385,0.41376987
1.3977697,0.4134746
1.3894506,0.4145556
1.3811809,0.41282865
1.3729603,0.4167119
1.3647891,0.41636708
