energy,intensity
97.76732,0.0057280674
92.828835,0.0060432376
88.18945,0.006322701
83.8307,0.0066514486
79.735245,0.0070416927
75.88682,0.0074307164
72.27017,0.007849497
68.87099,0.008307256
65.67586,0.00885893
62.672165,0.009376271
59.848106,0.009810614
57.19261,0.010333892
54.69525,0.010823445
52.346306,0.011420185
50.136597,0.01181723
48.057564,0.0124292625
46.10113,0.012872666
44.25976,0.013758472
42.52636,0.0142851025
40.894283,0.015186911
39.357292,0.015755376
37.909534,0.016408186
36.545517,0.017086882
35.260098,0.017957093
34.04844,0.018880686
32.906017,0.019757008
31.828575,0.020821542
30.812122,0.02182287
29.85292,0.02294598
28.947456,0.023395954
28.092442,0.02459088
27.284779,0.025372066
26.521572,0.026120458
25.800108,0.026794551
25.117828,0.028139556
24.472345,0.029198492
23.861408,0.030616058
23.282911,0.03214661
22.734882,0.033688612
22.215462,0.03462893
21.722916,0.035436414
21.255604,0.036329452
20.812004,0.03666154
20.390675,0.037466586
19.990267,0.03862902
19.609518,0.039996684
19.247244,0.041655604
18.902327,0.042902656
18.573725,0.0439225
18.260456,0.045471907
17.961601,0.04644426
17.676302,0.047084257
17.403744,0.0484897
17.143167,0.050357092
16.893862,0.051645055
16.655159,0.05317058
16.426428,0.05470724
16.207083,0.056194913
15.996571,0.057388697
15.794373,0.05830741
15.6,0.05946866
15.412999,0.061227392
15.232939,0.06280981
15.05942,0.064369895
14.892062,0.06626438
14.730514,0.068010606
14.574441,0.06890511
14.423531,0.07039856
14.277491,0.07169546
14.136047,0.073201045
13.998942,0.074852325
13.865933,0.07609441
13.73679,0.07783251
13.611302,0.0801873
13.48927,0.08177463
13.3705015,0.08366047
13.254824,0.08541394
13.142069,0.08673656
13.032082,0.087542936
12.924716,0.08905729
12.819836,0.09027713
12.717309,0.09153824
12.617017,0.092957
12.518845,0.09473078
12.422684,0.096127026
12.328438,0.098119326
12.23601,0.099771105
12.145311,0.1019521
12.056257,0.103870444
11.968773,0.10511539
11.882783,0.10656913
11.798219,0.107291915
11.7150135,0.10842612
11.633108,0.11006402
11.552444,0.11238411
11.472969,0.114218235
11.394629,0.1152586
11.317378,0.1173723
11.241171,0.11907301
11.165965,0.12000516
11.091721,0.12124519
11.018401,0.12301926
10.945969,0.12409886
10.874393,0.12558392
10.803641,0.12775159
10.733684,0.12894529
10.664492,0.13073584
10.596042,0.1325405
10.528306,0.13371533
10.461264,0.13485008
10.394891,0.13538489
10.329167,0.13648084
10.264075,0.13715757
10.199594,0.13731223
10.135705,0.1387513
10.072394,0.1399601
10.0096445,0.14098272
9.947442,0.1427896
9.885775,0.1435823
9.824624,0.14462394
9.763982,0.14527409
9.703834,0.14617454
9.64417,0.1465263
9.584979,0.14753224
9.526253,0.14874683
9.467979,0.14904834
9.410151,0.14950098
9.3527565,0.15041843
9.295791,0.15160078
9.239244,0.15106045
9.183109,0.15245865
9.12738,0.152328
9.07205,0.15309685
9.01711,0.15392222
8.962557,0.15475099
8.908382,0.15612713
8.854581,0.15778702
8.801149,0.15797432
8.74808,0.15793587
8.69537,0.15933897
8.643014,0.16002393
8.591007,0.16099265
8.539344,0.16037822
8.48802,0.1596928
8.437034,0.1596243
8.38638,0.16035737
8.336055,0.16179039
8.286055,0.1625328
8.236377,0.16321903
8.187016,0.16372974
8.13797,0.1632878
8.089236,0.16307378
8.04081,0.16327268
7.9926906,0.16352831
7.9448724,0.16384178
7.8973556,0.16421418
7.850135,0.16495514
7.80321,0.16687836
7.7565756,0.16681989
7.710231,0.16706865
7.664174,0.16699809
7.6184006,0.16615738
7.57291,0.1664518
7.5276995,0.16661488
7.482766,0.16735645
7.4381084,0.16816582
7.3937244,0.17022362
7.349611,0.17078397
7.3057675,0.17048267
7.2621903,0.16897078
7.218879,0.16897792
7.175831,0.16769627
7.133044,0.16754763
7.090517,0.1694407
7.0482473,0.17031941
7.0062337,0.17147903
6.9644732,0.17264636
6.9229665,0.17172214
6.881709,0.17141414
6.840701,0.17137946
6.79994,0.17183682
6.7594247,0.1707167
6.719154,0.17159566
6.679125,0.17160864
6.6393356,0.17271005
6.599786,0.17227699
6.560474,0.17257088
6.5213976,0.17211922
6.482556,0.1714317
6.443947,0.17110562
6.4055705,0.17160134
6.367422,0.17141214
6.3295035,0.17197976
6.291812,0.17123915
6.254346,0.17063834
6.217103,0.17056963
6.1800838,0.1708075
6.1432858,0.16914947
6.106708,0.17079726
6.0703483,0.1702242
6.034206,0.17268886
5.9982805,0.17340009
5.9625683,0.17443864
5.92707,0.17425738
5.891784,0.17571212
5.856708,0.17610273
5.8218417,0.17682455
5.787183,0.17704645
5.752732,0.17793827
5.718485,0.17807205
5.684444,0.17879754
5.650605,0.18003975
5.616968,0.18051417
5.583532,0.182376
5.550295,0.18233347
5.5172563,0.18228386
5.4844136,0.18152049
5.4517684,0.18198541
5.419316,0.18128736
5.387058,0.18255277
5.3549924,0.1817461
5.3231173,0.18292542
5.2914324,0.1837461
5.2599363,0.18438585
5.228627,0.1840075
5.1975055,0.18566857
5.166569,0.18724914
5.135817,0.1881817
5.105248,0.19054206
5.0748606,0.19149208
5.044654,0.19100617
5.0146275,0.19041099
4.9847803,0.19038486
4.955111,0.18956949
4.9256177,0.189426
4.8963003,0.18917505
4.867158,0.19000916
4.8381886,0.19054607
4.809392,0.19188842
4.7807665,0.19232808
4.7523127,0.19215441
4.724026,0.19371518
4.695909,0.19528772
4.667959,0.19448519
4.640177,0.19502324
4.612559,0.19766133
4.585105,0.19926746
4.557816,0.19780333
4.530688,0.19813229
4.5037217,0.19813539
4.4769163,0.19823964
4.450271,0.19986199
4.423784,0.20083965
4.3974533,0.20027956
4.3712807,0.20048131
4.345264,0.19945191
4.3194017,0.20008536
4.293693,0.2010577
4.2681384,0.20135348
4.2427354,0.20347252
4.217483,0.20515028
4.192381,0.204992
4.16743,0.20296441
4.142626,0.20382887
4.11797,0.20387286
4.09346,0.20544858
4.069097,0.20608343
4.0448785,0.20695804
4.0208044,0.20759472
3.9968739,0.21017092
3.9730854,0.20996614
3.949438,0.210978
3.925932,0.21433893
3.9025662,0.21562225
3.8793387,0.21728793
3.85625,0.21934262
3.8332987,0.22166696
3.8104842,0.22312124
3.7878044,0.22368985
3.7652605,0.22258458
3.742851,0.22262293
3.7205741,0.22343506
3.6984303,0.22215313
3.6764178,0.2233515
3.6545374,0.22574921
3.632786,0.2259007
3.6111646,0.22711912
3.5896719,0.22739932
3.5683074,0.22984694
3.5470698,0.2295842
3.525958,0.23040923
3.5049734,0.23068301
3.484112,0.23122996
3.4633756,0.23135552
3.4427624,0.23288146
3.4222722,0.23767318
3.4019039,0.23781459
3.3816562,0.23852219
3.3615294,0.24110325
3.3415227,0.2438516
3.321635,0.24312392
3.3018653,0.24472634
3.2822137,0.24648674
3.2626784,0.244993
3.24326,0.24631047
3.2239568,0.24838631
3.2047691,0.24957111
3.1856952,0.2525861
3.1667347,0.25241563
3.1478868,0.25592762
3.1291518,0.26194957
3.1105278,0.2638295
3.0920146,0.26211894
3.0736122,0.26479164
3.0553188,0.26209596
3.037134,0.26031563
3.0190578,0.26043004
3.0010896,0.26295784
2.9832275,0.2616093
2.9654722,0.26431915
2.9478228,0.264094
2.930278,0.26517922
2.9128375,0.26477125
2.895501,0.26635653
2.878268,0.26744634
2.8611374,0.26718512
2.8441086,0.27031785
2.8271809,0.27279314
2.8103547,0.27063408
2.7936282,0.2726013
2.7770011,0.27144232
2.7604735,0.27429593
2.7440438,0.27876294
2.7277122,0.2825632
2.711477,0.28586307
2.6953394,0.28469884
2.6792972,0.2867651
2.663351,0.28557172
2.6474993,0.29020932
2.631742,0.29047427
2.6160786,0.29425046
2.6005085,0.29228643
2.5850313,0.2932868
2.5696461,0.29221493
2.5543516,0.29358527
2.5391486,0.2949615
2.524037,0.29749522
2.5090146,0.2992764
2.4940815,0.29912594
2.4792366,0.30033076
2.4644816,0.3062569
2.4498136,0.3065086
2.4352329,0.31192452
2.420739,0.31379217
2.4063315,0.31667754
2.3920097,0.3147256
2.377773,0.3151838
2.363621,0.31440648
2.3495533,0.31484565
2.3355696,0.3192198
2.3216686,0.32008776
2.3078513,0.32368347
2.294115,0.3290003
2.280461,0.32778364
2.2668889,0.32354867
2.253397,0.32699075
2.2399855,0.3272184
2.2266536,0.33026543
2.213401,0.33311835
2.2002275,0.33687428
2.1871324,0.33756226
2.174115,0.33802363
2.1611753,0.33534014
2.1483126,0.33486748
2.1355262,0.3359651
2.1228166,0.34025866
2.1101818,0.3409185
2.0976226,0.34249777
2.0851378,0.34361917
2.0727284,0.345209
2.060392,0.34539494
2.0481286,0.34604385
2.0359385,0.3521608
2.0238216,0.35905674
2.0117764,0.36554092
1.9998028,0.36894083
1.9879006,0.37139353
1.9760691,0.3662625
1.9643079,0.3610568
1.9526169,0.36222613
1.9409955,0.36539325
1.9294431,0.36833426
1.9179596,0.37483355
1.9065444,0.38114336
1.8951972,0.38086924
1.8839173,0.38160676
1.8727047,0.3869958
1.8615594,0.38566956
1.8504798,0.38405174
1.8394659,0.38661465
1.8285179,0.39369833
1.8176354,0.39498937
1.8068173,0.39574564
1.7960637,0.40108207
1.7853739,0.40402612
1.7747478,0.4078101
1.7641851,0.40695655
1.753685,0.41519436
1.7432475,0.41406763
1.7328722,0.41486934
1.7225585,0.41144744
1.7123064,0.41447675
1.7021154,0.4146814
1.6919845,0.41773698
1.6819143,0.42167827
1.6719041,0.4239132
1.6619537,0.42557678
1.6520622,0.42460603
1.6422291,0.42773846
1.6324553,0.43089288
1.6227394,0.43048745
1.6130813,0.43546745
1.6034806,0.43505362
1.5939372,0.44008982
1.5844505,0.44853407
1.5750202,0.45060447
1.5656462,0.45546833
1.5563277,0.45912927
1.5470649,0.46062568
1.5378572,0.45204318
1.5287046,0.4557003
1.5196058,0.46066046
1.5105615,0.460853
1.5015709,0.4571597
1.4926344,0.45957226
1.4837507,0.4613444
1.4749194,0.46213594
1.466141,0.46325096
1.4574152,0.47001326
1.4487412,0.4751681
1.4401187,0.47532195
1.4315474,0.47546062
1.4230273,0.48034996
1.4145577,0.4818562
1.4061385,0.4819851
1.3977697,0.4859106
1.3894506,0.48812267
1.3811809,0.4945527
1.3729603,0.50774634
1.3647891,0.505107
