energy,intensity
97.76732,0.0043257806
92.828835,0.0046289735
88.18945,0.004845024
83.8307,0.005120055
79.735245,0.0054984754
75.88682,0.005796469
72.27017,0.0061535765
68.87099,0.0063377116
65.67586,0.0067566857
62.672165,0.0070495945
59.848106,0.0074227173
57.19261,0.007733478
54.69525,0.008051157
52.346306,0.008523493
50.136597,0.008812193
48.057564,0.009445433
46.10113,0.009804244
44.25976,0.010266862
42.52636,0.010685346
40.894283,0.011396105
39.357292,0.011890384
37.909534,0.012433929
36.545517,0.012977547
35.260098,0.013491865
34.04844,0.014142728
32.906017,0.014751508
31.828575,0.015463953
30.812122,0.0160527
29.85292,0.016957955
28.947456,0.017722687
28.092442,0.01848627
27.284779,0.018962467
26.521572,0.019398548
25.800108,0.01982834
25.117828,0.020771967
24.472345,0.02171576
23.861408,0.022779323
23.282911,0.023844672
22.734882,0.024845624
22.215462,0.025579184
21.722916,0.02602536
21.255604,0.026871035
20.812004,0.027490336
20.390675,0.027987087
19.990267,0.029153526
19.609518,0.030287791
19.247244,0.031386428
18.902327,0.032471724
18.573725,0.033437442
18.260456,0.034568198
17.961601,0.035116397
17.676302,0.036039464
17.403744,0.037411105
17.143167,0.038714483
16.893862,0.040117398
16.655159,0.040983234
16.426428,0.041848823
16.207083,0.04268422
15.996571,0.043155078
15.794373,0.043922253
15.6,0.044438466
15.412999,0.046014834
15.232939,0.047099397
15.05942,0.048188966
14.892062,0.049446177
14.730514,0.050580423
14.574441,0.051587414
14.423531,0.052597396
14.277491,0.053610418
14.136047,0.054592356
13.998942,0.05578453
13.865933,0.056634087
13.73679,0.057836585
13.611302,0.059152804
13.48927,0.06037029
13.3705015,0.061413813
13.254824,0.06264421
13.142069,0.06281305
13.032082,0.063491866
12.924716,0.063981816
12.819836,0.06488314
12.717309,0.06563479
12.617017,0.06657887
12.518845,0.06768144
12.422684,0.069063276
12.328438,0.070455715
12.23601,0.072056904
12.145311,0.07299388
12.056257,0.07433669
11.968773,0.07504196
11.882783,0.07631883
11.798219,0.07723541
11.7150135,0.07873507
11.633108,0.07983078
11.552444,0.0810172
11.472969,0.08195844
11.394629,0.082989596
11.317378,0.08415534
11.241171,0.08489824
11.165965,0.08542667
11.091721,0.0865226
11.018401,0.08701042
10.945969,0.08789599
10.874393,0.08865273
10.803641,0.08977139
10.733684,0.09067242
10.664492,0.09171496
10.596042,0.09249031
10.528306,0.093683526
10.461264,0.09451546
10.394891,0.094979145
10.329167,0.096427694
10.264075,0.09666162
10.199594,0.096370295
10.135705,0.09779028
10.072394,0.098116376
10.0096445,0.09887665
9.947442,0.10032284
9.885775,0.101144664
9.824624,0.101182505
9.763982,0.10081862
9.703834,0.10124385
9.64417,0.100765094
9.584979,0.10113464
9.526253,0.100893594
9.467979,0.1010029
9.410151,0.101211764
9.3527565,0.10162566
9.295791,0.10323861
9.239244,0.10324126
9.183109,0.104241624
9.12738,0.103445046
9.07205,0.10391576
9.01711,0.10476381
8.962557,0.10556363
8.908382,0.10664063
8.854581,0.10624909
8.801149,0.10661892
8.74808,0.106656544
8.69537,0.10741453
8.643014,0.10739258
8.591007,0.10849382
8.539344,0.10818578
8.48802,0.10792676
8.437034,0.10766028
8.38638,0.10802171
8.336055,0.10931311
8.286055,0.10921271
8.236377,0.10963614
8.187016,0.11029716
8.13797,0.110307075
8.089236,0.109294765
8.04081,0.110013254
7.9926906,0.11000885
7.9448724,0.10987829
7.8973556,0.10931255
7.850135,0.110648915
7.80321,0.111065984
7.7565756,0.11154637
7.710231,0.111274384
7.664174,0.11099494
7.6184006,0.10994493
7.57291,0.109837726
7.5276995,0.109725125
7.482766,0.11057825
7.4381084,0.11026521
7.3937244,0.11059951
7.349611,0.11126335
7.3057675,0.110207014
7.2621903,0.108933784
7.218879,0.10905048
7.175831,0.10707177
7.133044,0.1075103
7.090517,0.108838335
7.0482473,0.10839135
7.0062337,0.10883389
6.9644732,0.10997339
6.9229665,0.10937317
6.881709,0.10728342
6.840701,0.106864296
6.79994,0.10757612
6.7594247,0.10728922
6.719154,0.107283354
6.679125,0.10712846
6.6393356,0.10850014
6.599786,0.10797589
6.560474,0.10736759
6.5213976,0.106079504
6.482556,0.10551943
6.443947,0.10434737
6.4055705,0.10345996
6.367422,0.10385157
6.3295035,0.10500947
6.291812,0.10417562
6.254346,0.1045673
6.217103,0.10495994
6.1800838,0.10355056
6.1432858,0.103145674
6.106708,0.10384284
6.0703483,0.10334753
6.034206,0.10364542
5.9982805,0.104023896
5.9625683,0.106028154
5.92707,0.10576408
5.891784,0.106561944
5.856708,0.10720016
5.8218417,0.10651078
5.787183,0.105558194
5.752732,0.10585349
5.718485,0.1068263
5.684444,0.10797735
5.650605,0.11033864
5.616968,0.110826895
5.583532,0.11140381
5.550295,0.111372665
5.5172563,0.110722505
5.4844136,0.11032558
5.4517684,0.11036419
5.419316,0.1108463
5.387058,0.1099813
5.3549924,0.108016334
5.3231173,0.10793508
5.2914324,0.1083983
5.2599363,0.10748165
5.228627,0.108403236
5.1975055,0.11017082
5.166569,0.11298707
5.135817,0.114418246
5.105248,0.115388036
5.0748606,0.1155062
5.044654,0.113797046
5.0146275,0.112063274
4.9847803,0.11224833
4.955111,0.111649476
4.9256177,0.11162953
4.8963003,0.11368313
4.867158,0.11386616
4.8381886,0.11344651
4.809392,0.114830874
4.7807665,0.114099786
4.7523127,0.11345773
4.724026,0.11475239
4.695909,0.11760592
4.667959,0.115923144
4.640177,0.116199605
4.612559,0.1185758
4.585105,0.12087062
4.557816,0.1197874
4.530688,0.120290786
4.5037217,0.12079591
4.4769163,0.120761715
4.450271,0.120178446
4.423784,0.12024095
4.3974533,0.119418606
4.3712807,0.11891456
4.345264,0.11940356
4.3194017,0.11944556
4.293693,0.122191645
4.2681384,0.123717755
4.2427354,0.12594287
4.217483,0.12669696
4.192381,0.12502894
4.16743,0.12391757
4.142626,0.12582895
4.11797,0.12481771
4.09346,0.12686689
4.069097,0.128817
4.0448785,0.1313848
4.0208044,0.12940033
3.9968739,0.12981148
3.9730854,0.12693074
3.949438,0.12720008
3.925932,0.12944245
3.9025662,0.13158293
3.8793387,0.13386934
3.85625,0.13768587
3.8332987,0.13787836
3.8104842,0.14162797
3.7878044,0.14273176
3.7652605,0.14127044
3.742851,0.14289287
3.7205741,0.14140469
3.6984303,0.13910766
3.6764178,0.13994056
3.6545374,0.14276682
3.632786,0.14215475
3.6111646,0.1432742
3.5896719,0.14399709
3.5683074,0.14580956
3.5470698,0.14681916
3.525958,0.14769824
3.5049734,0.14913538
3.484112,0.14905505
3.4633756,0.14770946
3.4427624,0.14831242
3.4222722,0.15160689
3.4019039,0.1518026
3.3816562,0.152998
3.3615294,0.15766105
3.3415227,0.15990978
3.321635,0.16188814
3.3018653,0.16359104
3.2822137,0.16471812
3.2626784,0.16318019
3.24326,0.16490406
3.2239568,0.16498981
3.2047691,0.1646172
3.1856952,0.16560279
3.1667347,0.16368772
3.1478868,0.16374442
3.1291518,0.16828556
3.1105278,0.17147358
3.0920146,0.17234358
3.0736122,0.17652774
3.0553188,0.17568198
3.037134,0.17402226
3.0190578,0.17345957
3.0010896,0.17417526
2.9832275,0.17343186
2.9654722,0.17528705
2.9478228,0.17666523
2.930278,0.17954157
2.9128375,0.17978498
2.895501,0.17818448
2.878268,0.17908303
2.8611374,0.18269505
2.8441086,0.18293723
2.8271809,0.18403259
2.8103547,0.18478964
2.7936282,0.1848556
2.7770011,0.18596242
2.7604735,0.18812877
2.7440438,0.19331568
2.7277122,0.19536114
2.711477,0.19653085
2.6953394,0.19465207
2.6792972,0.19617917
2.663351,0.19389772
2.6474993,0.19963326
2.631742,0.20027633
2.6160786,0.20406793
2.6005085,0.20361318
2.5850313,0.20576929
2.5696461,0.20379634
2.5543516,0.20179248
2.5391486,0.20013882
2.524037,0.20152903
2.5090146,0.20061176
2.4940815,0.20084172
2.4792366,0.20302127
2.4644816,0.21131334
2.4498136,0.21040334
2.4352329,0.21782997
2.420739,0.21913423
2.4063315,0.21903701
2.3920097,0.21710801
2.377773,0.21942663
2.363621,0.21500158
2.3495533,0.21773218
2.3355696,0.22422129
2.3216686,0.2234772
2.3078513,0.2288035
2.294115,0.23460801
2.280461,0.22900243
2.2668889,0.22652681
2.253397,0.22917302
2.2399855,0.22881499
2.2266536,0.230185
2.213401,0.2324387
2.2002275,0.23713307
2.1871324,0.23722386
2.174115,0.2390899
2.1611753,0.23357251
2.1483126,0.23249051
2.1355262,0.23297511
2.1228166,0.2373367
2.1101818,0.24036479
2.0976226,0.24388246
2.0851378,0.24487805
2.0727284,0.2479802
2.060392,0.24781911
2.0481286,0.24457231
2.0359385,0.24913001
2.0238216,0.25493026
2.0117764,0.26030946
1.9998028,0.26380602
1.9879006,0.26977205
1.9760691,0.26599386
1.9643079,0.26166755
1.9526169,0.26571524
1.9409955,0.26580867
1.9294431,0.26438722
1.9179596,0.27102187
1.9065444,0.2756937
1.8951972,0.2758107
1.8839173,0.2764335
1.8727047,0.27860597
1.8615594,0.2761102
1.8504798,0.27357474
1.8394659,0.27521273
1.8285179,0.2787151
1.8176354,0.2822495
1.8068173,0.2831351
1.7960637,0.29130372
1.7853739,0.29521862
1.7747478,0.29534838
1.7641851,0.29656756
1.753685,0.30884048
1.7432475,0.30679902
1.7328722,0.3061199
1.7225585,0.30260935
1.7123064,0.30781615
1.7021154,0.3042515
1.6919845,0.3075048
1.6819143,0.30963394
1.6719041,0.3091698
1.6619537,0.3101464
1.6520622,0.31141683
1.6422291,0.31947634
1.6324553,0.32198265
1.6227394,0.32092512
1.6130813,0.32524917
1.6034806,0.32296693
1.5939372,0.32611635
1.5844505,0.33112642
1.5750202,0.3364924
1.5656462,0.33974472
1.5563277,0.33991128
1.5470649,0.33944136
1.5378572,0.3351735
1.5287046,0.33622947
1.5196058,0.33983666
1.5105615,0.34347498
1.5015709,0.3381111
1.4926344,0.34078452
1.4837507,0.34021285
1.4749194,0.33962235
1.466141,0.33868206
1.4574152,0.34636056
1.4487412,0.3491031
1.4401187,0.35152972
1.4315474,0.34754312
1.4230273,0.35643262
1.4145577,0.3527448
1.4061385,0.35623494
1.3977697,0.3576746
1.3894506,0.35702685
1.3811809,0.36091822
1.3729603,0.370489
1.3647891,0.36773774
