energy,intensity
97.76732,0.0046726367
92.828835,0.0049942816
88.18945,0.0052295495
83.8307,0.0054552276
79.735245,0.005863015
75.88682,0.006211414
72.27017,0.006629506
68.87099,0.006935609
65.67586,0.0073320367
62.672165,0.0078071165
59.848106,0.008191701
57.19261,0.008673693
54.69525,0.009060872
52.346306,0.009560008
50.136597,0.009952366
48.057564,0.010544208
46.10113,0.010939138
44.25976,0.011799231
42.52636,0.012428266
40.894283,0.013161197
39.357292,0.013564394
37.909534,0.014133531
36.545517,0.014899654
35.260098,0.015552742
34.04844,0.016433451
32.906017,0.017165925
31.828575,0.01826451
30.812122,0.019228654
29.85292,0.020106131
28.947456,0.020735042
28.092442,0.021848977
27.284779,0.022566756
26.521572,0.023234421
25.800108,0.023846587
25.117828,0.02507294
24.472345,0.026031198
23.861408,0.027164645
23.282911,0.028942352
22.734882,0.03021534
22.215462,0.031379748
21.722916,0.032358866
21.255604,0.033389367
20.812004,0.034263987
20.390675,0.035447143
19.990267,0.036859937
19.609518,0.038193244
19.247244,0.039767887
18.902327,0.04144181
18.573725,0.042566225
18.260456,0.044065837
17.961601,0.045311477
17.676302,0.0463991
17.403744,0.047932986
17.143167,0.049848437
16.893862,0.05101419
16.655159,0.052530672
16.426428,0.05391096
16.207083,0.055656873
15.996571,0.056813292
15.794373,0.05784733
15.6,0.05949972
15.412999,0.061321694
15.232939,0.06268259
15.05942,0.064337745
14.892062,0.066069216
14.730514,0.06735286
14.574441,0.06860597
14.423531,0.06999551
14.277491,0.07179725
14.136047,0.073303856
13.998942,0.07433324
13.865933,0.07609441
13.73679,0.07751512
13.611302,0.079048365
13.48927,0.08084088
13.3705015,0.082863346
13.254824,0.08428093
13.142069,0.08507777
13.032082,0.08605601
12.924716,0.08718319
12.819836,0.08853885
12.717309,0.0900907
12.617017,0.09176673
12.518845,0.09314421
12.422684,0.09464515
12.328438,0.09615457
12.23601,0.097593546
12.145311,0.099199876
12.056257,0.10069608
11.968773,0.10167496
11.882783,0.103266865
11.798219,0.10421235
11.7150135,0.105448745
11.633108,0.10669089
11.552444,0.10819068
11.472969,0.10944684
11.394629,0.11092207
11.317378,0.11215005
11.241171,0.11303963
11.165965,0.11393116
11.091721,0.11530523
11.018401,0.116468206
10.945969,0.117769994
10.874393,0.11912431
10.803641,0.12017349
10.733684,0.12109212
10.664492,0.12205948
10.596042,0.12275653
10.528306,0.12340828
10.461264,0.12443069
10.394891,0.1249922
10.329167,0.12644412
10.264075,0.12719877
10.199594,0.12776545
10.135705,0.12890536
10.072394,0.1297156
10.0096445,0.1301416
9.947442,0.130858
9.885775,0.13152727
9.824624,0.13180354
9.763982,0.13222522
9.703834,0.13274527
9.64417,0.132813
9.584979,0.133431
9.526253,0.1338976
9.467979,0.13421005
9.410151,0.13441703
9.3527565,0.1352419
9.295791,0.13612278
9.239244,0.13648398
9.183109,0.1366325
9.12738,0.13688292
9.07205,0.13782455
9.01711,0.13871804
8.962557,0.13875157
8.908382,0.13937786
8.854581,0.14000589
8.801149,0.14047055
8.74808,0.1408243
8.69537,0.14173368
8.643014,0.14191963
8.591007,0.14193293
8.539344,0.14188394
8.48802,0.14211403
8.437034,0.14165224
8.38638,0.14216119
8.336055,0.14278696
8.286055,0.1434732
8.236377,0.14375038
8.187016,0.14414372
8.13797,0.14453618
8.089236,0.14480808
8.04081,0.14507772
7.9926906,0.14498137
7.9448724,0.14481738
7.8973556,0.14501394
7.850135,0.14607139
7.80321,0.14719813
7.7565756,0.14733364
7.710231,0.14746526
7.664174,0.14752969
7.6184006,0.14771663
7.57291,0.14764445
7.5276995,0.14705099
7.482766,0.14819297
7.4381084,0.14875706
7.3937244,0.15004317
7.349611,0.14988914
7.3057675,0.14999293
7.2621903,0.14969222
7.218879,0.14985214
7.175831,0.14913088
7.133044,0.14975376
7.090517,0.15085691
7.0482473,0.15121175
7.0062337,0.15218765
6.9644732,0.15344802
6.9229665,0.15268858
6.881709,0.15142171
6.840701,0.15176289
6.79994,0.15146147
6.7594247,0.15158097
6.719154,0.15169637
6.679125,0.15166259
6.6393356,0.15257148
6.599786,0.15216455
6.560474,0.15211637
6.5213976,0.15154217
6.482556,0.15080611
6.443947,0.15028127
6.4055705,0.14974466
6.367422,0.1486637
6.3295035,0.14894202
6.291812,0.14844832
6.254346,0.14778845
6.217103,0.14758286
6.1800838,0.14705591
6.1432858,0.14683276
6.106708,0.14763291
6.0703483,0.14867684
6.034206,0.14916593
5.9982805,0.15094773
5.9625683,0.15160805
5.92707,0.15194392
5.891784,0.15301839
5.856708,0.15352124
5.8218417,0.15377496
5.787183,0.15385881
5.752732,0.15452756
5.718485,0.15502945
5.684444,0.15561691
5.650605,0.15706323
5.616968,0.15731382
5.583532,0.15834264
5.550295,0.15850529
5.5172563,0.15813738
5.4844136,0.15784775
5.4517684,0.15897065
5.419316,0.15902871
5.387058,0.1590817
5.3549924,0.15894867
5.3231173,0.15917243
5.2914324,0.15893535
5.2599363,0.15905812
5.228627,0.15889876
5.1975055,0.16022304
5.166569,0.16155747
5.135817,0.16403407
5.105248,0.1645418
5.0748606,0.16571797
5.044654,0.16555789
5.0146275,0.16510013
4.9847803,0.16550559
4.955111,0.16493231
4.9256177,0.16434623
4.8963003,0.1656271
4.867158,0.16602162
4.8381886,0.16681543
4.809392,0.16821717
4.7807665,0.1670964
4.7523127,0.16768911
4.724026,0.1678728
4.695909,0.16970327
4.667959,0.16781352
4.640177,0.16975792
4.612559,0.17108943
4.585105,0.17253646
4.557816,0.17112485
4.530688,0.17129408
4.5037217,0.17167433
4.4769163,0.1711873
4.450271,0.17275652
4.423784,0.17302436
4.3974533,0.17428067
4.3712807,0.17477006
4.345264,0.17492457
4.3194017,0.17485039
4.293693,0.17533313
4.2681384,0.17615595
4.2427354,0.17732482
4.217483,0.17746763
4.192381,0.17760581
4.16743,0.17797168
4.142626,0.17845257
4.11797,0.17846227
4.09346,0.17976753
4.069097,0.18048671
4.0448785,0.18108825
4.0208044,0.18060622
3.9968739,0.18289962
3.9730854,0.18289731
3.949438,0.18313381
3.925932,0.1842303
3.9025662,0.18545747
3.8793387,0.18731715
3.85625,0.18881556
3.8332987,0.18981971
3.8104842,0.19133762
3.7878044,0.19209959
3.7652605,0.1913198
3.742851,0.19298302
3.7205741,0.19348745
3.6984303,0.194122
3.6764178,0.19436193
3.6545374,0.19592328
3.632786,0.19522943
3.6111646,0.19572759
3.5896719,0.19689947
3.5683074,0.1979426
3.5470698,0.19830829
3.525958,0.19949566
3.5049734,0.20013723
3.484112,0.20091842
3.4633756,0.20184162
3.4427624,0.20361298
3.4222722,0.20582296
3.4019039,0.20648569
3.3816562,0.20800854
3.3615294,0.20968632
3.3415227,0.21108676
3.321635,0.21162136
3.3018653,0.21274172
3.2822137,0.21401547
3.2626784,0.21425751
3.24326,0.21509223
3.2239568,0.21442662
3.2047691,0.2151058
3.1856952,0.21669789
3.1667347,0.21799535
3.1478868,0.22022395
3.1291518,0.22432917
3.1105278,0.22676253
3.0920146,0.22592679
3.0736122,0.22901322
3.0553188,0.22753039
3.037134,0.22745715
3.0190578,0.22785623
3.0010896,0.22905903
2.9832275,0.23026814
2.9654722,0.23230028
2.9478228,0.23237641
2.930278,0.23393306
2.9128375,0.23483478
2.895501,0.23289466
2.878268,0.23496231
2.8611374,0.23552252
2.8441086,0.23812501
2.8271809,0.23852268
2.8103547,0.23977835
2.7936282,0.2408672
2.7770011,0.24318162
2.7604735,0.24569055
2.7440438,0.24733816
2.7277122,0.25130543
2.711477,0.25138083
2.6953394,0.25162774
2.6792972,0.25241116
2.663351,0.25210348
2.6474993,0.25599167
2.631742,0.25752443
2.6160786,0.25906628
2.6005085,0.25987226
2.5850313,0.26124078
2.5696461,0.2612967
2.5543516,0.2634302
2.5391486,0.26386276
2.524037,0.26582637
2.5090146,0.26548713
2.4940815,0.26532862
2.4792366,0.26750356
2.4644816,0.2710708
2.4498136,0.27190277
2.4352329,0.27591798
2.420739,0.28137234
2.4063315,0.282453
2.3920097,0.28090373
2.377773,0.28197438
2.363621,0.28017843
2.3495533,0.28288686
2.3355696,0.28603256
2.3216686,0.28691053
2.3078513,0.2896778
2.294115,0.29373515
2.280461,0.29315707
2.2668889,0.29106563
2.253397,0.2930233
2.2399855,0.2917499
2.2266536,0.2945846
2.213401,0.2967861
2.2002275,0.29900345
2.1871324,0.30079365
2.174115,0.30237183
2.1611753,0.30104402
2.1483126,0.30059147
2.1355262,0.30284494
2.1228166,0.3053428
2.1101818,0.30763015
2.0976226,0.309703
2.0851378,0.30923402
2.0727284,0.31108543
2.060392,0.3098914
2.0481286,0.3115104
2.0359385,0.31408936
2.0238216,0.32051796
2.0117764,0.32412264
1.9998028,0.32679
1.9879006,0.32777184
1.9760691,0.32507637
1.9643079,0.3203639
1.9526169,0.32178584
1.9409955,0.32446125
1.9294431,0.32866368
1.9179596,0.33340988
1.9065444,0.337693
1.8951972,0.33766994
1.8839173,0.33763456
1.8727047,0.34276038
1.8615594,0.34377155
1.8504798,0.3421647
1.8394659,0.346057
1.8285179,0.3505134
1.8176354,0.35101283
1.8068173,0.35070142
1.7960637,0.35927457
1.7853739,0.35925493
1.7747478,0.36140594
1.7641851,0.36192226
1.753685,0.37403402
1.7432475,0.3698819
1.7328722,0.37069863
1.7225585,0.37038708
1.7123064,0.37486804
1.7021154,0.37312788
1.6919845,0.37221253
1.6819143,0.37328896
1.6719041,0.37610346
1.6619537,0.3760233
1.6520622,0.37944767
1.6422291,0.38260463
1.6324553,0.3851921
1.6227394,0.38719982
1.6130813,0.3904191
1.6034806,0.3906419
1.5939372,0.39358866
1.5844505,0.4029774
1.5750202,0.40600535
1.5656462,0.40565148
1.5563277,0.40932545
1.5470649,0.40801853
1.5378572,0.40227112
1.5287046,0.4043627
1.5196058,0.40933424
1.5105615,0.41499212
1.5015709,0.41263744
1.4926344,0.4144589
1.4837507,0.4179199
1.4749194,0.41615236
1.466141,0.41368774
1.4574152,0.41915607
1.4487412,0.42099696
1.4401187,0.42049006
1.4315474,0.42030048
1.4230273,0.42758295
1.4145577,0.42397866
1.4061385,0.4292734
1.3977697,0.43496275
1.3894506,0.43617243
1.3811809,0.44194067
1.3729603,0.4491738
1.3647891,0.44760355
