energy,intensity
97.76732,0.0046899794
92.828835,0.004994282
88.18945,0.0052899756
83.8307,0.0055303527
79.735245,0.005777955
75.88682,0.006032669
72.27017,0.0062943446
68.87099,0.006562802
65.67586,0.0068710186
62.672165,0.007269895
59.848106,0.007758642
57.19261,0.008106175
54.69525,0.008609158
52.346306,0.008981596
50.136597,0.009290486
48.057564,0.009571439
46.10113,0.009961868
44.25976,0.01027781
42.52636,0.010628389
40.894283,0.0109637175
39.357292,0.011318022
37.909534,0.011788592
36.545517,0.012049633
35.260098,0.01207673
34.04844,0.012143681
32.906017,0.012719862
31.828575,0.013264601
30.812122,0.013938023
29.85292,0.014897036
28.947456,0.015664244
28.092442,0.016089262
27.284779,0.016751954
26.521572,0.017590212
25.800108,0.018138427
25.117828,0.018457541
24.472345,0.018766217
23.861408,0.019124886
23.282911,0.019880962
22.734882,0.019848796
22.215462,0.021065209
21.722916,0.021676648
21.255604,0.022324152
20.812004,0.02266032
20.390675,0.023378009
19.990267,0.023955327
19.609518,0.024420455
19.247244,0.025408661
18.902327,0.026141405
18.573725,0.026877755
18.260456,0.027179679
17.961601,0.028319675
17.676302,0.029064527
17.403744,0.02935269
17.143167,0.029883627
16.893862,0.030840788
16.655159,0.03110828
16.426428,0.031541448
16.207083,0.031654473
15.996571,0.03257073
15.794373,0.033033706
15.6,0.033678204
15.412999,0.03465257
15.232939,0.035586916
15.05942,0.035900455
14.892062,0.0363527
14.730514,0.036948703
14.574441,0.037144937
14.423531,0.037735097
14.277491,0.038477354
14.136047,0.038862348
13.998942,0.040125415
13.865933,0.04077235
13.73679,0.041102763
13.611302,0.042015575
13.48927,0.04255728
13.3705015,0.042717922
13.254824,0.043364845
13.142069,0.044511005
13.032082,0.045221224
12.924716,0.045653097
12.819836,0.046366688
12.717309,0.04685478
12.617017,0.047227226
12.518845,0.047597576
12.422684,0.04790752
12.328438,0.048804242
12.23601,0.049469832
12.145311,0.049779434
12.056257,0.050448496
11.968773,0.05130295
11.882783,0.051613044
11.798219,0.05253731
11.7150135,0.053840887
11.633108,0.05409503
11.552444,0.05503886
11.472969,0.055166773
11.394629,0.056056242
11.317378,0.0574662
11.241171,0.058308285
11.165965,0.059156556
11.091721,0.05994562
11.018401,0.060212612
10.945969,0.059814416
10.874393,0.0604754
10.803641,0.06066967
10.733684,0.060861986
10.664492,0.061256867
10.596042,0.06206406
10.528306,0.063843764
10.461264,0.064530775
10.394891,0.065991394
10.329167,0.067607254
10.264075,0.068177596
10.199594,0.068038665
10.135705,0.06839584
10.072394,0.06846502
10.0096445,0.067877874
9.947442,0.06735267
9.885775,0.06821385
9.824624,0.06871238
9.763982,0.06980895
9.703834,0.07076585
9.64417,0.07127898
9.584979,0.0708094
9.526253,0.07078824
9.467979,0.07022618
9.410151,0.07027164
9.3527565,0.07078056
9.295791,0.070901625
9.239244,0.07117826
9.183109,0.07153424
9.12738,0.07228946
9.07205,0.07240996
9.01711,0.07260937
8.962557,0.07126762
8.908382,0.07194573
8.854581,0.07156221
8.801149,0.07125358
8.74808,0.072516486
8.69537,0.073290356
8.643014,0.07247318
8.591007,0.07367316
8.539344,0.0741189
8.48802,0.07328289
8.437034,0.072692215
8.38638,0.07399776
8.336055,0.07374712
8.286055,0.074016735
8.236377,0.07419849
8.187016,0.07375826
8.13797,0.07304197
8.089236,0.073122695
8.04081,0.07455717
7.9926906,0.073733196
7.9448724,0.074085526
7.8973556,0.07296704
7.850135,0.07377623
7.80321,0.07459239
7.7565756,0.07550927
7.710231,0.076717116
7.664174,0.07717814
7.6184006,0.07754646
7.57291,0.07772442
7.5276995,0.078673884
7.482766,0.07943766
7.4381084,0.080207676
7.3937244,0.07931321
7.349611,0.07889941
7.3057675,0.07877611
7.2621903,0.07964907
7.218879,0.08063024
7.175831,0.081417754
7.133044,0.08190613
7.090517,0.08331974
7.0482473,0.08278844
7.0062337,0.0815217
6.9644732,0.081697494
6.9229665,0.082607165
6.881709,0.0817297
6.840701,0.08190097
6.79994,0.083994865
6.7594247,0.08557336
6.719154,0.08641069
6.679125,0.08638457
6.6393356,0.08657392
6.599786,0.08500074
6.560474,0.085288554
6.5213976,0.08513104
6.482556,0.08743466
6.443947,0.08852236
6.4055705,0.089846805
6.367422,0.09084158
6.3295035,0.09081175
6.291812,0.08904589
6.254346,0.09016024
6.217103,0.088713355
6.1800838,0.08853926
6.1432858,0.0908439
6.106708,0.092339985
6.0703483,0.093252204
6.034206,0.09405159
5.9982805,0.09388802
5.9625683,0.09335351
5.92707,0.09403522
5.891784,0.09410505
5.856708,0.09392421
5.8218417,0.095485255
5.787183,0.0956804
5.752732,0.09802184
5.718485,0.09784643
5.684444,0.09881588
5.650605,0.09735006
5.616968,0.09754492
5.583532,0.096697465
5.550295,0.09622913
5.5172563,0.095224865
5.4844136,0.09513263
5.4517684,0.09636874
5.419316,0.09560494
5.387058,0.09577276
5.3549924,0.09336086
5.3231173,0.09228177
5.2914324,0.094207644
5.2599363,0.09283763
5.228627,0.094088435
5.1975055,0.09549069
5.166569,0.09746894
5.135817,0.0974866
5.105248,0.10034772
5.0748606,0.10295324
5.044654,0.10400186
5.0146275,0.10549406
4.9847803,0.10627148
4.955111,0.107494414
4.9256177,0.108728155
4.8963003,0.11071489
4.867158,0.10943691
4.8381886,0.11144392
4.809392,0.1119601
4.7807665,0.11217449
4.7523127,0.112540305
4.724026,0.11429094
4.695909,0.11404679
4.667959,0.114106975
4.640177,0.11134491
4.612559,0.11075127
4.585105,0.11078046
4.557816,0.11240033
4.530688,0.11419606
4.5037217,0.116816
4.4769163,0.11946318
4.450271,0.121321455
4.423784,0.1236905
4.3974533,0.12525736
4.3712807,0.12484367
4.345264,0.122079276
4.3194017,0.12314669
4.293693,0.12202241
4.2681384,0.124285266
4.2427354,0.12571451
4.217483,0.12663952
4.192381,0.123931184
4.16743,0.12676558
4.142626,0.12682295
4.11797,0.12634705
4.09346,0.12781364
4.069097,0.12965038
4.0448785,0.12845053
4.0208044,0.12867741
3.9968739,0.13126592
3.9730854,0.13296635
3.949438,0.13210656
3.925932,0.13215716
3.9025662,0.1320174
3.8793387,0.1341191
3.85625,0.13397992
3.8332987,0.13345514
3.8104842,0.13444486
3.7878044,0.13697648
3.7652605,0.13355073
3.742851,0.13609768
3.7205741,0.1376938
3.6984303,0.13674992
3.6764178,0.13895229
3.6545374,0.13958538
3.632786,0.13882093
3.6111646,0.13884717
3.5896719,0.14109555
3.5683074,0.1423476
3.5470698,0.14442907
3.525958,0.14735475
3.5049734,0.14885896
3.484112,0.14620464
3.4633756,0.14749965
3.4427624,0.14584994
3.4222722,0.14863421
3.4019039,0.14866969
3.3816562,0.15170872
3.3615294,0.15542728
3.3415227,0.15853253
3.321635,0.15882541
3.3018653,0.15955628
3.2822137,0.16139717
3.2626784,0.15768641
3.24326,0.15997486
3.2239568,0.16138348
3.2047691,0.1616695
3.1856952,0.16218124
3.1667347,0.16521753
3.1478868,0.1627441
3.1291518,0.16464739
3.1105278,0.16703491
3.0920146,0.1696801
3.0736122,0.16998675
3.0553188,0.17243156
3.037134,0.17489955
3.0190578,0.17570603
3.0010896,0.17554735
2.9832275,0.1761113
2.9654722,0.17716573
2.9478228,0.17773345
2.930278,0.1805335
2.9128375,0.18410915
2.895501,0.18596439
2.878268,0.18581548
2.8611374,0.18540414
2.8441086,0.1862587
2.8271809,0.18557476
2.8103547,0.18823722
2.7936282,0.18832381
2.7770011,0.18945137
2.7604735,0.19163862
2.7440438,0.1922564
2.7277122,0.19260831
2.711477,0.19644152
2.6953394,0.20139208
2.6792972,0.19961454
2.663351,0.20517512
2.6474993,0.20448229
2.631742,0.20294544
2.6160786,0.20304947
2.6005085,0.2059418
2.5850313,0.2057693
2.5696461,0.20784962
2.5543516,0.20681831
2.5391486,0.20834282
2.524037,0.21131757
2.5090146,0.20968656
2.4940815,0.20802851
2.4792366,0.208981
2.4644816,0.21052706
2.4498136,0.2097112
2.4352329,0.2121604
2.420739,0.21613237
2.4063315,0.21712443
2.3920097,0.21994337
2.377773,0.22339952
2.363621,0.22565944
2.3495533,0.22701053
2.3355696,0.2280586
2.3216686,0.2284851
2.3078513,0.22638956
2.294115,0.22869532
2.280461,0.23070188
2.2668889,0.23625037
2.253397,0.23605254
2.2399855,0.23811464
2.2266536,0.2385613
2.213401,0.23834813
2.2002275,0.23779361
2.1871324,0.24021411
2.174115,0.23764154
2.1611753,0.2363745
2.1483126,0.23948105
2.1355262,0.24533848
2.1228166,0.24338421
2.1101818,0.24862945
2.0976226,0.25496802
2.0851378,0.25614613
2.0727284,0.2580303
2.060392,0.2602806
2.0481286,0.25864586
2.0359385,0.26019448
2.0238216,0.2628295
2.0117764,0.26295832
1.9998028,0.26743972
1.9879006,0.27233085
1.9760691,0.26918086
1.9643079,0.26746315
1.9526169,0.2709253
1.9409955,0.27104992
1.9294431,0.2726728
1.9179596,0.27392656
1.9065444,0.28014034
1.8951972,0.28181764
1.8839173,0.2827336
1.8727047,0.2801581
1.8615594,0.27676085
1.8504798,0.27684712
1.8394659,0.28048
1.8285179,0.2817619
1.8176354,0.2874467
1.8068173,0.29077652
1.7960637,0.29413587
1.7853739,0.29101282
1.7747478,0.29152685
1.7641851,0.29862708
1.753685,0.3020725
1.7432475,0.30304745
1.7328722,0.30905533
1.7225585,0.31301504
1.7123064,0.30852348
1.7021154,0.30780917
1.6919845,0.3075048
1.6819143,0.30588955
1.6719041,0.30554786
1.6619537,0.3121868
1.6520622,0.31801468
1.6422291,0.3177064
1.6324553,0.32005367
1.6227394,0.3255524
1.6130813,0.32389772
1.6034806,0.31903931
1.5939372,0.32322899
1.5844505,0.32745743
1.5750202,0.32711118
1.5656462,0.3276773
1.5563277,0.34271276
1.5470649,0.34617382
1.5378572,0.34871903
1.5287046,0.34938076
1.5196058,0.35816747
1.5105615,0.35790667
1.5015709,0.35521024
1.4926344,0.35003436
1.4837507,0.3545789
1.4749194,0.35078982
1.466141,0.35635954
1.4574152,0.36048755
1.4487412,0.3656554
1.4401187,0.36229426
1.4315474,0.36446348
1.4230273,0.3676669
1.4145577,0.37089568
1.4061385,0.37053248
1.3977697,0.3722311
1.3894506,0.37236783
1.3811809,0.3735451
1.3729603,0.38054514
1.3647891,0.3838884
