energy,intensity
97.76732,0.004630518
92.828835,0.0049160016
88.18945,0.0051993374
83.8307,0.005469675
79.735245,0.005604799
75.88682,0.005812429
72.27017,0.0060329176
68.87099,0.0063623316
65.67586,0.0067271804
62.672165,0.0071655423
59.848106,0.0076979334
57.19261,0.008004531
54.69525,0.0083965855
52.346306,0.008926068
50.136597,0.009275993
48.057564,0.009374869
46.10113,0.009599331
44.25976,0.00980168
42.52636,0.010064503
40.894283,0.010128556
39.357292,0.010542561
37.909534,0.011232707
36.545517,0.01137358
35.260098,0.011850035
34.04844,0.012186365
32.906017,0.012918611
31.828575,0.013515738
30.812122,0.014150277
29.85292,0.014750985
28.947456,0.015463421
28.092442,0.01585646
27.284779,0.016458996
26.521572,0.017343618
25.800108,0.0179976
25.117828,0.018428613
24.472345,0.019033458
23.861408,0.019794863
23.282911,0.020005804
22.734882,0.019976646
22.215462,0.02139231
21.722916,0.021777006
21.255604,0.02259765
20.812004,0.02374271
20.390675,0.024696587
19.990267,0.024900455
19.609518,0.025902728
19.247244,0.026692307
18.902327,0.02725626
18.573725,0.028207948
18.260456,0.028691873
17.961601,0.02985703
17.676302,0.030503366
17.403744,0.031148087
17.143167,0.03149437
16.893862,0.03273339
16.655159,0.033028007
16.426428,0.03335519
16.207083,0.033268582
15.996571,0.034296937
15.794373,0.035012048
15.6,0.035960685
15.412999,0.03733991
15.232939,0.038544543
15.05942,0.0387474
14.892062,0.03923164
14.730514,0.03956323
14.574441,0.03948831
14.423531,0.03995185
14.277491,0.041022148
14.136047,0.04179245
13.998942,0.043188028
13.865933,0.043707117
13.73679,0.04427672
13.611302,0.04527218
13.48927,0.045196913
13.3705015,0.044674464
13.254824,0.045557756
13.142069,0.04677803
13.032082,0.047451623
12.924716,0.04863292
12.819836,0.049597625
12.717309,0.04999747
12.617017,0.050279718
12.518845,0.050035506
12.422684,0.049720876
12.328438,0.051044047
12.23601,0.05142963
12.145311,0.052292336
12.056257,0.052919693
11.968773,0.05336721
11.882783,0.05369225
11.798219,0.0540155
11.7150135,0.054399144
11.633108,0.05509448
11.552444,0.05598239
11.472969,0.056306846
11.394629,0.056885283
11.317378,0.05842932
11.241171,0.059989013
11.165965,0.06104384
11.091721,0.062369645
11.018401,0.06179542
10.945969,0.061142154
10.874393,0.060943168
10.803641,0.06120776
10.733684,0.061268188
10.664492,0.06139314
10.596042,0.061789744
10.528306,0.06287748
10.461264,0.063488826
10.394891,0.06452336
10.329167,0.065778136
10.264075,0.06654927
10.199594,0.06611506
10.135705,0.06588655
10.072394,0.0655071
10.0096445,0.06497401
9.947442,0.064357586
9.885775,0.06475905
9.824624,0.06442248
9.763982,0.064524904
9.703834,0.065224394
9.64417,0.06585395
9.584979,0.06482017
9.526253,0.06552489
9.467979,0.064700186
9.410151,0.065097794
9.3527565,0.065031104
9.295791,0.06472607
9.239244,0.064571664
9.183109,0.064808115
9.12738,0.065124206
9.07205,0.06456019
9.01711,0.06511474
8.962557,0.064132735
8.908382,0.06582789
8.854581,0.06450446
8.801149,0.06374016
8.74808,0.06445909
8.69537,0.06543483
8.643014,0.06541083
8.591007,0.06606055
8.539344,0.06629003
8.48802,0.066434026
8.437034,0.06545744
8.38638,0.0661994
8.336055,0.06581451
8.286055,0.06612395
8.236377,0.06643455
8.187016,0.06577001
8.13797,0.06438051
8.089236,0.06351073
8.04081,0.06470659
7.9926906,0.06355056
7.9448724,0.06475623
7.8973556,0.06477781
7.850135,0.06488977
7.80321,0.065652475
7.7565756,0.06576614
7.710231,0.066067204
7.664174,0.06684347
7.6184006,0.06657741
7.57291,0.06726521
7.5276995,0.067958795
7.482766,0.06865821
7.4381084,0.06936351
7.3937244,0.06840396
7.349611,0.06624387
7.3057675,0.06574623
7.2621903,0.06624081
7.218879,0.068450145
7.175831,0.06916458
7.133044,0.07008883
7.090517,0.0712266
7.0482473,0.07103516
7.0062337,0.07052767
6.9644732,0.070950575
6.9229665,0.07127099
6.881709,0.07169828
6.840701,0.07170318
6.79994,0.07352222
6.7594247,0.07407041
6.719154,0.07473065
6.679125,0.074525736
6.6393356,0.07530071
6.599786,0.07332965
6.560474,0.07387983
6.5213976,0.0734311
6.482556,0.07622508
6.443947,0.07634349
6.4055705,0.07872939
6.367422,0.07965757
6.3295035,0.08047919
6.291812,0.078189455
6.254346,0.07761218
6.217103,0.074687526
6.1800838,0.07548766
6.1432858,0.07676783
6.106708,0.077227645
6.0703483,0.078408465
6.034206,0.08164786
5.9982805,0.08092542
5.9625683,0.08006953
5.92707,0.08042647
5.891784,0.08029147
5.856708,0.0805242
5.8218417,0.08225462
5.787183,0.08199385
5.752732,0.084632255
5.718485,0.08348716
5.684444,0.08373145
5.650605,0.08281827
5.616968,0.08292611
5.583532,0.08199112
5.550295,0.082613036
5.5172563,0.08297603
5.4844136,0.08360542
5.4517684,0.0834396
5.419316,0.083134726
5.387058,0.08390232
5.3549924,0.081826456
5.3231173,0.08013225
5.2914324,0.0807494
5.2599363,0.07985141
5.228627,0.07991263
5.1975055,0.08095039
5.166569,0.08326351
5.135817,0.08390357
5.105248,0.085687
5.0748606,0.087775156
5.044654,0.08916502
5.0146275,0.08911929
4.9847803,0.08892402
4.955111,0.08842991
4.9256177,0.08984457
4.8963003,0.09038254
4.867158,0.090475805
4.8381886,0.09071715
4.809392,0.09110924
4.7807665,0.09074278
4.7523127,0.09174482
4.724026,0.09183268
4.695909,0.09393
4.667959,0.09402539
4.640177,0.09239592
4.612559,0.09121619
4.585105,0.09144539
4.557816,0.0915146
4.530688,0.09206256
4.5037217,0.09422727
4.4769163,0.09673922
4.450271,0.09862471
4.423784,0.09954376
4.3974533,0.10096602
4.3712807,0.09841207
4.345264,0.099001296
4.3194017,0.10077169
4.293693,0.098159485
4.2681384,0.09925796
4.2427354,0.10327772
4.217483,0.10320691
4.192381,0.10243821
4.16743,0.10531831
4.142626,0.104545616
4.11797,0.10323048
4.09346,0.10367106
4.069097,0.10554185
4.0448785,0.10473657
4.0208044,0.106086574
3.9968739,0.10708536
3.9730854,0.10717784
3.949438,0.10745158
3.925932,0.1088353
3.9025662,0.10669391
3.8793387,0.10995518
3.85625,0.110236645
3.8332987,0.11089667
3.8104842,0.110988535
3.7878044,0.11318783
3.7652605,0.11251459
3.742851,0.11299409
3.7205741,0.112498775
3.6984303,0.11356529
3.6764178,0.11424526
3.6545374,0.1139351
3.632786,0.11361712
3.6111646,0.1136937
3.5896719,0.11639875
3.5683074,0.116688386
3.5470698,0.11800164
3.525958,0.119120345
3.5049734,0.12045552
3.484112,0.117839694
3.4633756,0.11980412
3.4427624,0.11862181
3.4222722,0.11911969
3.4019039,0.12090095
3.3816562,0.124848105
3.3615294,0.12624414
3.3415227,0.13069691
3.321635,0.13060436
3.3018653,0.13204658
3.2822137,0.13283719
3.2626784,0.13029175
3.24326,0.13107184
3.2239568,0.1325328
3.2047691,0.13196585
3.1856952,0.13298407
3.1667347,0.13584551
3.1478868,0.13619721
3.1291518,0.138406
3.1105278,0.13970192
3.0920146,0.14006834
3.0736122,0.13972487
3.0553188,0.13984793
3.037134,0.14068529
3.0190578,0.13912068
3.0010896,0.14043789
2.9832275,0.14200953
2.9654722,0.14506516
2.9478228,0.14667323
2.930278,0.14879134
2.9128375,0.15018119
2.895501,0.15258615
2.878268,0.15400466
2.8611374,0.1531489
2.8441086,0.15304385
2.8271809,0.15370318
2.8103547,0.15436487
2.7936282,0.15372841
2.7770011,0.1551722
2.7604735,0.1571542
2.7440438,0.15650624
2.7277122,0.15691051
2.711477,0.16133396
2.6953394,0.16499591
2.6792972,0.16408531
2.663351,0.16643193
2.6474993,0.16386029
2.631742,0.16566974
2.6160786,0.1652728
2.6005085,0.16710065
2.5850313,0.16782002
2.5696461,0.17193548
2.5543516,0.17125808
2.5391486,0.17228349
2.524037,0.17389077
2.5090146,0.1723253
2.4940815,0.17073488
2.4792366,0.1714641
2.4644816,0.17337522
2.4498136,0.17352341
2.4352329,0.1715784
2.420739,0.17410663
2.4063315,0.17514904
2.3920097,0.17589395
2.377773,0.18214244
2.363621,0.1863074
2.3495533,0.18649504
2.3355696,0.18667823
2.3216686,0.18873496
2.3078513,0.18577166
2.294115,0.19005153
2.280461,0.19214538
2.2668889,0.19553968
2.253397,0.19606549
2.2399855,0.19723938
2.2266536,0.19515684
2.213401,0.19599701
2.2002275,0.19650999
2.1871324,0.19801882
2.174115,0.19619633
2.1611753,0.1963623
2.1483126,0.19855274
2.1355262,0.20144293
2.1228166,0.20025285
2.1101818,0.20696163
2.0976226,0.20646866
2.0851378,0.20700791
2.0727284,0.20824727
2.060392,0.21196294
2.0481286,0.2100389
2.0359385,0.21165343
2.0238216,0.21363875
2.0117764,0.21275063
1.9998028,0.21729477
1.9879006,0.2211546
1.9760691,0.22064006
1.9643079,0.2215912
1.9526169,0.22291796
1.9409955,0.21938574
1.9294431,0.22258238
1.9179596,0.22505167
1.9065444,0.22944829
1.8951972,0.23082209
1.8839173,0.23143268
1.8727047,0.22738592
1.8615594,0.22835696
1.8504798,0.22736804
1.8394659,0.22754434
1.8285179,0.23248339
1.8176354,0.23547447
1.8068173,0.2344712
1.7960637,0.23627968
1.7853739,0.23484531
1.7747478,0.23707029
1.7641851,0.24096112
1.753685,0.24530442
1.7432475,0.24927422
1.7328722,0.25160542
1.7225585,0.2531119
1.7123064,0.24826166
1.7021154,0.24718657
1.6919845,0.25081396
1.6819143,0.25188366
1.6719041,0.25208783
1.6619537,0.25840673
1.6520622,0.25995392
1.6422291,0.26372287
1.6324553,0.26352125
1.6227394,0.2704727
1.6130813,0.27074066
1.6034806,0.26601714
1.5939372,0.26988938
1.5844505,0.27242255
1.5750202,0.27728325
1.5656462,0.2733738
1.5563277,0.2885511
1.5470649,0.2832331
1.5378572,0.2887091
1.5287046,0.28568417
1.5196058,0.2960022
1.5105615,0.29248288
1.5015709,0.29133046
1.4926344,0.29404837
1.4837507,0.29678845
1.4749194,0.29511672
1.466141,0.2998575
1.4574152,0.30663878
1.4487412,0.30847472
1.4401187,0.30376202
1.4315474,0.3040579
1.4230273,0.30281454
1.4145577,0.3015454
1.4061385,0.30696833
1.3977697,0.3103659
1.3894506,0.31431615
1.3811809,0.3183025
1.3729603,0.32550102
1.3647891,0.3279823
