energy,intensity
97.76732,0.0047122766
92.828835,0.004994282
88.18945,0.005224057
83.8307,0.005452338
79.735245,0.0057232743
75.88682,0.0060422444
72.27017,0.0063043996
68.87099,0.0065839044
65.67586,0.006915276
62.672165,0.0073394626
59.848106,0.007782925
57.19261,0.008144292
54.69525,0.008502873
52.346306,0.008926068
50.136597,0.009275993
48.057564,0.009571439
46.10113,0.010056442
44.25976,0.010310645
42.52636,0.010799264
40.894283,0.011194719
39.357292,0.0116688255
37.909534,0.012344477
36.545517,0.0126063805
35.260098,0.012921688
34.04844,0.013381524
32.906017,0.013978599
31.828575,0.014497456
30.812122,0.015187962
29.85292,0.016381871
28.947456,0.017270833
28.092442,0.01800342
27.284779,0.018483076
26.521572,0.019919131
25.800108,0.02078596
25.117828,0.021292713
24.472345,0.022418503
23.861408,0.023601571
23.282911,0.024718558
22.734882,0.025218517
22.215462,0.026462352
21.722916,0.027229618
21.255604,0.028375262
20.812004,0.02946889
20.390675,0.030790549
19.990267,0.03162539
19.609518,0.032647077
19.247244,0.033865627
18.902327,0.035060238
18.573725,0.03611087
18.260456,0.037128318
17.961601,0.03871704
17.676302,0.039835256
17.403744,0.04125243
17.143167,0.042303346
16.893862,0.043830913
16.655159,0.04472088
16.426428,0.045299362
16.207083,0.046181463
15.996571,0.047561448
15.794373,0.049090482
15.6,0.05021453
15.412999,0.05219102
15.232939,0.054048233
15.05942,0.054960508
14.892062,0.05591973
14.730514,0.056976967
14.574441,0.05758711
14.423531,0.0582904
14.277491,0.059395593
14.136047,0.06060676
13.998942,0.06166752
13.865933,0.062311478
13.73679,0.06284438
13.611302,0.063797474
13.48927,0.063997544
13.3705015,0.064239934
13.254824,0.06534879
13.142069,0.06574358
13.032082,0.06629844
12.924716,0.06684918
12.819836,0.06694262
12.717309,0.06708233
12.617017,0.06709722
12.518845,0.06681074
12.422684,0.06627501
12.328438,0.06654588
12.23601,0.066811
12.145311,0.066771455
12.056257,0.06726466
11.968773,0.06733133
11.882783,0.06769627
11.798219,0.0680583
11.7150135,0.068665735
11.633108,0.0687744
11.552444,0.06912881
11.472969,0.0689743
11.394629,0.06919343
11.317378,0.06992256
11.241171,0.07071981
11.165965,0.0712612
11.091721,0.07154165
11.018401,0.07122631
10.945969,0.0703699
10.874393,0.07023166
10.803641,0.07015351
10.733684,0.07006915
10.664492,0.070523754
10.596042,0.07077361
10.528306,0.07150502
10.461264,0.07217166
10.394891,0.07256258
10.329167,0.073446386
10.264075,0.07426615
10.199594,0.07388073
10.135705,0.07377287
10.072394,0.07358727
10.0096445,0.073467806
9.947442,0.07290451
9.885775,0.0736533
9.824624,0.074185714
9.763982,0.07509301
9.703834,0.07555846
9.64417,0.07542313
9.584979,0.07497912
9.526253,0.07536507
9.467979,0.075061426
9.410151,0.075599924
9.3527565,0.0753646
9.295791,0.07551376
9.239244,0.075739965
9.183109,0.07604469
9.12738,0.07698668
9.07205,0.07737612
9.01711,0.07792815
8.962557,0.077510625
8.908382,0.079450265
8.854581,0.078209616
8.801149,0.0780239
8.74808,0.07932789
8.69537,0.0797252
8.643014,0.07953553
8.591007,0.0806091
8.539344,0.081181884
8.48802,0.08021738
8.437034,0.07975473
8.38638,0.07997651
8.336055,0.07950044
8.286055,0.079541676
8.236377,0.07887449
8.187016,0.07819618
8.13797,0.077595934
8.089236,0.077434584
8.04081,0.07826243
7.9926906,0.078097194
7.9448724,0.078841634
7.8973556,0.077659756
7.850135,0.0784046
7.80321,0.07924859
7.7565756,0.079256624
7.710231,0.08001576
7.664174,0.08078105
7.6184006,0.08059873
7.57291,0.07935568
7.5276995,0.08021841
7.482766,0.08089433
7.4381084,0.08069615
7.3937244,0.08049259
7.349611,0.079393774
7.3057675,0.07857718
7.2621903,0.07934888
7.218879,0.08214018
7.175831,0.08243041
7.133044,0.08343423
7.090517,0.08393465
7.0482473,0.08237604
7.0062337,0.0810031
6.9644732,0.08180184
6.9229665,0.08082277
6.881709,0.08204649
6.840701,0.081688516
6.79994,0.08367427
6.7594247,0.085250854
6.719154,0.08543735
6.679125,0.08594939
6.6393356,0.08635503
6.599786,0.08456033
6.560474,0.085067034
6.5213976,0.08423961
6.482556,0.086762086
6.443947,0.08637978
6.4055705,0.088485494
6.367422,0.08730378
6.3295035,0.08690835
6.291812,0.08558107
6.254346,0.0855128
6.217103,0.0845056
6.1800838,0.085011795
6.1432858,0.08646731
6.106708,0.08888914
6.0703483,0.089182146
6.034206,0.09019802
5.9982805,0.08892104
5.9625683,0.08774744
5.92707,0.08692436
5.891784,0.08670492
5.856708,0.08710013
5.8218417,0.087621756
5.787183,0.088397644
5.752732,0.08981125
5.718485,0.089586675
5.684444,0.09012316
5.650605,0.08796226
5.616968,0.088359654
5.583532,0.08563517
5.550295,0.08523151
5.5172563,0.086005315
5.4844136,0.08625536
5.4517684,0.086638555
5.419316,0.0856824
5.387058,0.08525124
5.3549924,0.08494752
5.3231173,0.08422761
5.2914324,0.08390797
5.2599363,0.084548555
5.228627,0.08491586
5.1975055,0.08612337
5.166569,0.08720165
5.135817,0.0889972
5.105248,0.09123814
5.0748606,0.094075486
5.044654,0.0949269
5.0146275,0.09433602
4.9847803,0.09431777
4.955111,0.09429591
4.9256177,0.094565466
4.8963003,0.09706104
4.867158,0.0964478
4.8381886,0.09597394
4.809392,0.09700187
4.7807665,0.0965187
4.7523127,0.09679078
4.724026,0.09829328
4.695909,0.09934606
4.667959,0.09900687
4.640177,0.09819023
4.612559,0.09736028
4.585105,0.09715081
4.557816,0.09852965
4.530688,0.09815729
4.5037217,0.101003885
4.4769163,0.10388104
4.450271,0.10629915
4.423784,0.107592665
4.3974533,0.10922839
4.3712807,0.10888495
4.345264,0.10502163
4.3194017,0.105482206
4.293693,0.105606064
4.2681384,0.10623835
4.2427354,0.109272264
4.217483,0.109926544
4.192381,0.10815813
4.16743,0.10985188
4.142626,0.10822926
4.11797,0.10764204
4.09346,0.108819105
4.069097,0.11268513
4.0448785,0.11174297
4.0208044,0.111689106
3.9968739,0.11526676
3.9730854,0.117237195
3.949438,0.116283216
3.925932,0.11642416
3.9025662,0.11581782
3.8793387,0.11782249
3.85625,0.119470134
3.8332987,0.11810021
3.8104842,0.116328165
3.7878044,0.117792085
3.7652605,0.11444451
3.742851,0.114547275
3.7205741,0.116795614
3.6984303,0.11729841
3.6764178,0.11879136
3.6545374,0.120297946
3.632786,0.11981805
3.6111646,0.11912687
3.5896719,0.12267418
3.5683074,0.124630526
3.5470698,0.124967
3.525958,0.12530307
3.5049734,0.12646793
3.484112,0.12284528
3.4633756,0.12630838
3.4427624,0.12579823
3.4222722,0.12761308
3.4019039,0.12794992
3.3816562,0.13022023
3.3615294,0.13208076
3.3415227,0.13678595
3.321635,0.13607356
3.3018653,0.14018945
3.2822137,0.13947904
3.2626784,0.13808696
3.24326,0.13891374
3.2239568,0.13726611
3.2047691,0.13740773
3.1856952,0.13937095
3.1667347,0.1418117
3.1478868,0.14012152
3.1291518,0.14281826
3.1105278,0.14180446
3.0920146,0.14406359
3.0736122,0.14327116
3.0553188,0.14412901
3.037134,0.145949
3.0190578,0.14610077
3.0010896,0.14382777
2.9832275,0.14541969
2.9654722,0.14849576
2.9478228,0.14889182
2.930278,0.14953531
2.9128375,0.15517059
2.895501,0.15710351
2.878268,0.15652934
2.8611374,0.15797448
2.8441086,0.15917584
2.8271809,0.15910079
2.8103547,0.1613462
2.7936282,0.16075154
2.7770011,0.16040567
2.7604735,0.16241899
2.7440438,0.15994886
2.7277122,0.16090652
2.711477,0.16588992
2.6953394,0.17173594
2.6792972,0.17140815
2.663351,0.17379859
2.6474993,0.1720945
2.631742,0.16981149
2.6160786,0.16832829
2.6005085,0.17045385
2.5850313,0.17091219
2.5696461,0.173915
2.5543516,0.1758098
2.5391486,0.17857955
2.524037,0.17792132
2.5090146,0.17580076
2.4940815,0.17656198
2.4792366,0.17791231
2.4644816,0.17779806
2.4498136,0.1773795
2.4352329,0.17903833
2.420739,0.18101086
2.4063315,0.17967877
2.3920097,0.18196973
2.377773,0.18550414
2.363621,0.18784457
2.3495533,0.18804142
2.3355696,0.18854503
2.3216686,0.19029991
2.3078513,0.18829063
2.294115,0.19131853
2.280461,0.19182672
2.2668889,0.19586024
2.253397,0.19509804
2.2399855,0.19886142
2.2266536,0.1987467
2.213401,0.20092158
2.2002275,0.20113376
2.1871324,0.20200577
2.174115,0.20221254
2.1611753,0.2017421
2.1483126,0.20058224
2.1355262,0.2062068
2.1228166,0.20607214
2.1101818,0.2107496
2.0976226,0.21235788
2.0851378,0.21572039
2.0727284,0.21560952
2.060392,0.21760586
2.0481286,0.21748963
2.0359385,0.22057644
2.0238216,0.22297421
2.0117764,0.22286442
1.9998028,0.22601561
1.9879006,0.22956213
1.9760691,0.22909793
1.9643079,0.22972977
1.9526169,0.23408243
1.9409955,0.23323774
1.9294431,0.23237447
1.9179596,0.2352813
1.9065444,0.2359277
1.8951972,0.23350605
1.8839173,0.2372185
1.8727047,0.23320636
1.8615594,0.2346026
1.8504798,0.23443654
1.8394659,0.23663029
1.8285179,0.2396367
1.8176354,0.24386995
1.8068173,0.24492793
1.7960637,0.24437146
1.7853739,0.24379954
1.7747478,0.24321203
1.7641851,0.24713962
1.753685,0.24986243
1.7432475,0.2534427
1.7328722,0.25705686
1.7225585,0.25986153
1.7123064,0.2571736
1.7021154,0.2595672
1.6919845,0.26155084
1.6819143,0.26225275
1.6719041,0.26251906
1.6619537,0.26715147
1.6520622,0.26963073
1.6422291,0.2694752
1.6324553,0.26574692
1.6227394,0.27226388
1.6130813,0.27299306
1.6034806,0.27190852
1.5939372,0.27080116
1.5844505,0.28021914
1.5750202,0.2758991
1.5656462,0.27615863
1.5563277,0.28995183
1.5470649,0.29262727
1.5378572,0.29437935
1.5287046,0.29661718
1.5196058,0.30556613
1.5105615,0.30306613
1.5015709,0.30391282
1.4926344,0.29842988
1.4837507,0.30364493
1.4749194,0.29905814
1.466141,0.30530944
1.4574152,0.31212336
1.4487412,0.31650004
1.4401187,0.31183544
1.4315474,0.31217965
1.4230273,0.3160914
1.4145577,0.31541544
1.4061385,0.31316972
1.3977697,0.31712428
1.3894506,0.3242529
1.3811809,0.3251421
1.3729603,0.33344012
1.3647891,0.3386311
