energy,intensity
97.76732,0.00471971
92.828835,0.005049078
88.18945,0.005364134
83.8307,0.00559103
79.735245,0.0058326367
75.88682,0.006080547
72.27017,0.0063848384
68.87099,0.006594456
65.67586,0.0069927275
62.672165,0.0074438155
59.848106,0.00780721
57.19261,0.008169704
54.69525,0.008595872
52.346306,0.009120414
50.136597,0.0094209295
48.057564,0.009692404
46.10113,0.010119492
44.25976,0.010376317
42.52636,0.010833439
40.894283,0.011248028
39.357292,0.011705752
37.909534,0.012344477
36.545517,0.012566613
35.260098,0.012859863
34.04844,0.0132107865
32.906017,0.013824019
31.828575,0.014474625
30.812122,0.015187962
29.85292,0.016089771
28.947456,0.016793877
28.092442,0.017615415
27.284779,0.018349914
26.521572,0.020083526
25.800108,0.021180276
25.117828,0.021813458
24.472345,0.022863906
23.861408,0.02418019
23.282911,0.025436398
22.734882,0.025985619
22.215462,0.02754178
21.722916,0.0289022
21.255604,0.030563232
20.812004,0.0317035
20.390675,0.033249512
19.990267,0.03438807
19.609518,0.035796903
19.247244,0.036999237
18.902327,0.038827676
18.573725,0.040492687
18.260456,0.04210264
17.961601,0.043976407
17.676302,0.04550839
17.403744,0.047223173
17.143167,0.048746344
16.893862,0.050368987
16.655159,0.051614445
16.426428,0.052775525
16.207083,0.054027826
15.996571,0.056283318
15.794373,0.058246065
15.6,0.060322654
15.412999,0.06256321
15.232939,0.06521089
15.05942,0.0665413
14.892062,0.06821621
14.730514,0.069950946
14.574441,0.070749894
14.423531,0.07239698
14.277491,0.07420632
14.136047,0.07571989
13.998942,0.07760349
13.865933,0.079133995
13.73679,0.08040695
13.611302,0.082162604
13.48927,0.08355234
13.3705015,0.08451193
13.254824,0.085907355
13.142069,0.08780556
13.032082,0.08921573
12.924716,0.090519086
12.819836,0.09193982
12.717309,0.09330958
12.617017,0.09399371
12.518845,0.094498605
12.422684,0.094060205
12.328438,0.094484545
12.23601,0.09561397
12.145311,0.09698613
12.056257,0.09806417
11.968773,0.09932738
11.882783,0.100229606
11.798219,0.10131757
11.7150135,0.10278151
11.633108,0.104254745
11.552444,0.10567461
11.472969,0.10697667
11.394629,0.10841366
11.317378,0.11056624
11.241171,0.11196224
11.165965,0.113367125
11.091721,0.11451906
11.018401,0.114885405
10.945969,0.11557923
10.874393,0.115471266
10.803641,0.11636201
10.733684,0.11651111
10.664492,0.11679007
10.596042,0.116927326
10.528306,0.116920374
10.461264,0.11711397
10.394891,0.116673365
10.329167,0.11664188
10.264075,0.11624883
10.199594,0.115915075
10.135705,0.11535524
10.072394,0.114926
10.0096445,0.114339724
9.947442,0.113520645
9.885775,0.112170614
9.824624,0.11124158
9.763982,0.11014633
9.703834,0.108582534
9.64417,0.107144535
9.584979,0.105531774
9.526253,0.104122795
9.467979,0.10230764
9.410151,0.101160266
9.3527565,0.09952787
9.295791,0.09810533
9.239244,0.096188955
9.183109,0.09479869
9.12738,0.09362599
9.07205,0.09235473
9.01711,0.090660974
8.962557,0.08926695
8.908382,0.088667795
8.854581,0.08658043
8.801149,0.08528962
8.74808,0.08522557
8.69537,0.0851572
8.643014,0.08441192
8.591007,0.084753744
8.539344,0.08399006
8.48802,0.08312815
8.437034,0.08130504
8.38638,0.080756344
8.336055,0.079413265
8.286055,0.07927859
8.236377,0.07887449
8.187016,0.07819618
8.13797,0.077417344
8.089236,0.07734476
8.04081,0.07753946
7.9926906,0.07618795
7.9448724,0.07536601
7.8973556,0.074255235
7.850135,0.073405966
7.80321,0.073754266
7.7565756,0.07438506
7.710231,0.07483218
7.664174,0.07452337
7.6184006,0.07430344
7.57291,0.072734706
7.5276995,0.07317154
7.482766,0.074193604
7.4381084,0.07522522
7.3937244,0.074104294
7.349611,0.07435133
7.3057675,0.07330556
7.2621903,0.07404561
7.218879,0.075295165
7.175831,0.07615192
7.133044,0.07660872
7.090517,0.07676074
7.0482473,0.077633485
7.0062337,0.07664698
6.9644732,0.077002235
6.9229665,0.077883765
6.881709,0.07782273
6.840701,0.077333204
6.79994,0.07854481
6.7594247,0.07976813
6.719154,0.08067881
6.679125,0.08007436
6.6393356,0.07989757
6.599786,0.07872479
6.560474,0.08008263
6.5213976,0.07889107
6.482556,0.080484726
6.443947,0.08130525
6.4055705,0.083494
6.367422,0.08342361
6.3295035,0.083119735
6.291812,0.08280922
6.254346,0.082259595
6.217103,0.080882266
6.1800838,0.08242499
6.1432858,0.083983295
6.106708,0.083653376
6.0703483,0.085112095
6.034206,0.08646484
5.9982805,0.08637698
5.9625683,0.08567561
5.92707,0.08569833
5.891784,0.08608824
5.856708,0.08647976
5.8218417,0.08724731
5.787183,0.08726756
5.752732,0.08854808
5.718485,0.088951305
5.684444,0.089356154
5.650605,0.089248255
5.616968,0.09068832
5.583532,0.090060085
5.550295,0.088635534
5.5172563,0.08929801
5.4844136,0.088772796
5.4517684,0.08810475
5.419316,0.087291464
5.387058,0.087004825
5.3549924,0.08562602
5.3231173,0.08627527
5.2914324,0.08610524
5.2599363,0.085791916
5.228627,0.08769542
5.1975055,0.08850016
5.166569,0.09071784
5.135817,0.09168552
5.105248,0.0933732
5.0748606,0.096366525
5.044654,0.09679951
5.0146275,0.09810367
4.9847803,0.098545305
4.955111,0.09957531
4.9256177,0.10076165
4.8963003,0.10255226
4.867158,0.1022705
4.8381886,0.10183151
4.809392,0.10198796
4.7807665,0.102750614
4.7523127,0.10183674
4.724026,0.103215635
4.695909,0.10398839
4.667959,0.1042997
4.640177,0.10304493
4.612559,0.10177144
4.585105,0.10269777
4.557816,0.104588106
4.530688,0.1034501
4.5037217,0.105521634
4.4769163,0.10891278
4.450271,0.10940158
4.423784,0.110056624
4.3974533,0.11385532
4.3712807,0.113373354
4.345264,0.10920243
4.3194017,0.11137037
4.293693,0.11102176
4.2681384,0.11202699
4.2427354,0.1142392
4.217483,0.11526781
4.192381,0.11405136
4.16743,0.1152573
4.142626,0.115245745
4.11797,0.113994695
4.09346,0.1152098
4.069097,0.120185554
4.0448785,0.11695285
4.0208044,0.116388
3.9968739,0.11963017
3.9730854,0.121809624
3.949438,0.12033105
3.925932,0.12123662
3.9025662,0.12196249
3.8793387,0.12269275
3.85625,0.123050466
3.8332987,0.12397678
3.8104842,0.12414696
3.7878044,0.12373924
3.7652605,0.124287106
3.742851,0.12425466
3.7205741,0.12538926
3.6984303,0.12653297
3.6764178,0.12768587
3.6545374,0.12805268
3.632786,0.12701915
3.6111646,0.12476124
3.5896719,0.12854472
3.5683074,0.12870342
3.5470698,0.13090807
3.525958,0.13457714
3.5049734,0.13434625
3.484112,0.13389927
3.4633756,0.1351206
3.4427624,0.13191925
3.4222722,0.13228445
3.4019039,0.13264927
3.3816562,0.13752632
3.3615294,0.13921443
3.3415227,0.14374486
3.321635,0.1446055
3.3018653,0.14789218
3.2822137,0.14833486
3.2626784,0.14521405
3.24326,0.1469797
3.2239568,0.14538038
3.2047691,0.14511707
3.1856952,0.14598593
3.1667347,0.14800736
3.1478868,0.14750852
3.1291518,0.15024947
3.1105278,0.1516163
3.0920146,0.15369917
3.0736122,0.1548558
3.0553188,0.1564965
3.037134,0.15934762
3.0190578,0.16006099
3.0010896,0.15859798
2.9832275,0.15979117
2.9654722,0.16393343
2.9478228,0.16343589
2.930278,0.16218258
2.9128375,0.16290417
2.895501,0.16613823
2.878268,0.16763785
2.8611374,0.16940351
2.8441086,0.17246178
2.8271809,0.1709241
2.8103547,0.17220601
2.7936282,0.17089605
2.7770011,0.17113426
2.7604735,0.17347509
2.7440438,0.17451374
2.7277122,0.17289461
2.711477,0.17821777
2.6953394,0.18063278
2.6792972,0.17954461
2.663351,0.18525785
2.6474993,0.18389682
2.631742,0.18168446
2.6160786,0.18193899
2.6005085,0.18107228
2.5850313,0.18131311
2.5696461,0.18579213
2.5543516,0.18576667
2.5391486,0.1877375
2.524037,0.187422
2.5090146,0.18593755
2.4940815,0.1867595
2.4792366,0.18846396
2.4644816,0.18929742
2.4498136,0.18924434
2.4352329,0.19157101
2.420739,0.19451913
2.4063315,0.19356988
2.3920097,0.19594403
2.377773,0.19864528
2.363621,0.20167927
2.3495533,0.20350535
2.3355696,0.2047238
2.3216686,0.20782754
2.3078513,0.20497856
2.294115,0.21032366
2.280461,0.20521
2.2668889,0.20932361
2.253397,0.20960948
2.2399855,0.21443295
2.2266536,0.21571687
2.213401,0.21471031
2.2002275,0.21434453
2.1871324,0.2123054
2.174115,0.21090272
2.1611753,0.21317418
2.1483126,0.21546523
2.1355262,0.22117892
2.1228166,0.22353008
2.1101818,0.2265903
2.0976226,0.23348975
2.0851378,0.23175128
2.0727284,0.22717886
2.060392,0.23065516
2.0481286,0.2284883
2.0359385,0.23164096
2.0238216,0.23518214
2.0117764,0.23767385
1.9998028,0.24345735
1.9879006,0.24893603
1.9760691,0.244175
1.9643079,0.24082784
1.9526169,0.24152544
1.9409955,0.24072531
1.9294431,0.24367309
1.9179596,0.24778417
1.9065444,0.2496489
1.8951972,0.25267735
1.8839173,0.2522616
1.8727047,0.24911563
1.8615594,0.2474843
1.8504798,0.25014415
1.8394659,0.25006175
1.8285179,0.2531486
1.8176354,0.25706294
1.8068173,0.25699335
1.7960637,0.25853208
1.7853739,0.25885898
1.7747478,0.25999942
1.7641851,0.2627918
1.753685,0.2672658
1.7432475,0.27178395
1.7328722,0.27424988
1.7225585,0.27842307
1.7123064,0.27542192
1.7021154,0.27024025
1.6919845,0.2718583
1.6819143,0.2700296
1.6719041,0.27121174
1.6619537,0.281143
1.6520622,0.28678504
1.6422291,0.28540474
1.6324553,0.28444272
1.6227394,0.287937
1.6130813,0.28785902
1.6034806,0.28731668
1.5939372,0.29222816
1.5844505,0.30131584
1.5750202,0.29989034
1.5656462,0.2998294
1.5563277,0.31609884
1.5470649,0.3156429
1.5378572,0.31706026
1.5287046,0.32038456
1.5196058,0.32851943
1.5105615,0.32808107
1.5015709,0.326174
1.4926344,0.32617944
1.4837507,0.33009142
1.4749194,0.3286191
1.466141,0.33157796
1.4574152,0.33456033
1.4487412,0.33806822
1.4401187,0.3360557
1.4315474,0.33705258
1.4230273,0.33958125
1.4145577,0.33853224
1.4061385,0.3369417
1.3977697,0.34103855
1.3894506,0.34098852
1.3811809,0.34829137
1.3729603,0.35619873
1.3647891,0.3604611
