energy,intensity
97.76732,0.0047122766
92.828835,0.0050569056
88.18945,0.0052899746
83.8307,0.005513016
79.735245,0.005796183
75.88682,0.00611885
72.27017,0.0063345633
68.87099,0.0066050068
65.67586,0.0070591136
62.672165,0.0074206265
59.848106,0.007819352
57.19261,0.008245938
54.69525,0.008556014
52.346306,0.008953833
50.136597,0.00930498
48.057564,0.009662164
46.10113,0.0101037305
44.25976,0.0103599
42.52636,0.010799264
40.894283,0.011070333
39.357292,0.011391875
37.909534,0.011884434
36.545517,0.012208702
35.260098,0.012530123
34.04844,0.012933339
32.906017,0.013691519
31.828575,0.014063673
30.812122,0.014716285
29.85292,0.015286501
28.947456,0.016065892
28.092442,0.016296199
27.284779,0.016831852
26.521572,0.017480616
25.800108,0.018082097
25.117828,0.018428613
24.472345,0.018855296
23.861408,0.019368514
23.282911,0.02072364
22.734882,0.02099945
22.215462,0.022340897
21.722916,0.02294781
21.255604,0.023794197
20.812004,0.024301361
20.390675,0.024874773
19.990267,0.025990983
19.609518,0.026755035
19.247244,0.027371887
18.902327,0.02821734
18.573725,0.029107789
18.260456,0.029567352
17.961601,0.0311921
17.676302,0.03202442
17.403744,0.03235894
17.143167,0.032766018
16.893862,0.033851743
16.655159,0.03411876
16.426428,0.03410723
16.207083,0.034254987
15.996571,0.03579601
15.794373,0.03712841
15.6,0.037917092
15.412999,0.03903718
15.232939,0.04045269
15.05942,0.04053277
14.892062,0.040890686
14.730514,0.041487124
14.574441,0.04173196
14.423531,0.042067833
14.277491,0.043312468
14.136047,0.0442599
13.998942,0.045004833
13.865933,0.046013013
13.73679,0.046445593
13.611302,0.047674596
13.48927,0.04751332
13.3705015,0.047609285
13.254824,0.04890194
13.142069,0.04998503
13.032082,0.050574165
12.924716,0.051219177
12.819836,0.05180826
12.717309,0.051883094
12.617017,0.05223792
12.518845,0.052009065
12.422684,0.052177668
12.328438,0.053048085
12.23601,0.053567577
12.145311,0.053907774
12.056257,0.05484842
11.968773,0.05549218
11.882783,0.056016058
11.798219,0.056663923
11.7150135,0.057314493
11.633108,0.057593096
11.552444,0.057932336
11.472969,0.058396976
11.394629,0.05886224
11.317378,0.060098726
11.241171,0.06115259
11.165965,0.06143431
11.091721,0.06204207
11.018401,0.06192732
10.945969,0.061540466
10.874393,0.061143644
10.803641,0.061275017
10.733684,0.061538987
10.664492,0.061733834
10.596042,0.062064063
10.528306,0.0626014
10.461264,0.06300259
10.394891,0.06361459
10.329167,0.06430076
10.264075,0.06520413
10.199594,0.065046385
10.135705,0.06459607
10.072394,0.0642085
10.0096445,0.06359467
9.947442,0.062969625
9.885775,0.06387698
9.824624,0.064052664
9.763982,0.06474818
9.703834,0.06574859
9.64417,0.06608
9.584979,0.06489599
9.526253,0.06460953
9.467979,0.06446994
9.410151,0.063939475
9.3527565,0.06402106
9.295791,0.064960584
9.239244,0.06535816
9.183109,0.06559943
9.12738,0.06671648
9.07205,0.06720348
9.01711,0.067774124
8.962557,0.067213714
8.908382,0.06786717
8.854581,0.067540936
8.801149,0.06745559
8.74808,0.06803093
8.69537,0.06886117
8.643014,0.068942
8.591007,0.06952852
8.539344,0.06952369
8.48802,0.06951602
8.437034,0.0689887
8.38638,0.06949204
8.336055,0.06816813
8.286055,0.06901797
8.236377,0.06881668
8.187016,0.0672789
8.13797,0.066434264
8.089236,0.06674467
8.04081,0.06796
7.9926906,0.06673264
7.9448724,0.06713429
7.8973556,0.0667101
7.850135,0.06738908
7.80321,0.06798057
7.7565756,0.06885771
7.710231,0.069271594
7.664174,0.068929374
7.6184006,0.068961985
7.57291,0.06956815
7.5276995,0.070372105
7.482766,0.07098889
7.4381084,0.07200129
7.3937244,0.07164725
7.349611,0.07079197
7.3057675,0.0709184
7.2621903,0.0717442
7.218879,0.07297994
7.175831,0.07362028
7.133044,0.07385814
7.090517,0.07419863
7.0482473,0.074849814
7.0062337,0.07384662
6.9644732,0.07543715
6.9229665,0.075994395
6.881709,0.076555595
6.840701,0.0769083
6.79994,0.078972265
6.7594247,0.07955313
6.719154,0.08035436
6.679125,0.08083594
6.6393356,0.080773145
6.599786,0.07872478
6.560474,0.07919652
6.5213976,0.078668214
6.482556,0.081381485
6.443947,0.08243292
6.4055705,0.085195646
6.367422,0.08536369
6.3295035,0.08576029
6.291812,0.0850036
6.254346,0.08446713
6.217103,0.08216797
6.1800838,0.08289532
6.1432858,0.083510146
6.106708,0.08484332
6.0703483,0.08726683
6.034206,0.08947547
5.9982805,0.08855761
5.9625683,0.088478655
5.92707,0.08729215
5.891784,0.08744494
5.856708,0.08796865
5.8218417,0.08874512
5.787183,0.08889991
5.752732,0.091074415
5.718485,0.09060326
5.684444,0.091785006
5.650605,0.08989126
5.616968,0.09017084
5.583532,0.089018926
5.550295,0.08929016
5.5172563,0.088639475
5.4844136,0.088242814
5.4517684,0.08957095
5.419316,0.08957096
5.387058,0.09010733
5.3549924,0.08793291
5.3231173,0.08709434
5.2914324,0.08679188
5.2599363,0.08648267
5.228627,0.0878344
5.1975055,0.08850015
5.166569,0.09128043
5.135817,0.09069508
5.105248,0.09308853
5.0748606,0.09565058
5.044654,0.09564714
5.0146275,0.09564021
4.9847803,0.09723331
4.955111,0.097962156
4.9256177,0.098253675
4.8963003,0.100622915
4.867158,0.1012254
4.8381886,0.10273267
4.809392,0.10289451
4.7807665,0.103054605
4.7523127,0.102601275
4.724026,0.102600336
4.695909,0.101357736
4.667959,0.10149761
4.640177,0.10085249
4.612559,0.100196026
4.585105,0.1003205
4.557816,0.10124002
4.530688,0.100563124
4.5037217,0.104230836
4.4769163,0.10696499
4.450271,0.10825858
4.423784,0.11022089
4.3974533,0.11137658
4.3712807,0.10971614
4.345264,0.106693946
4.3194017,0.10783748
4.293693,0.10746771
4.2681384,0.10811116
4.2427354,0.110128656
4.217483,0.110615745
4.192381,0.110584736
4.16743,0.112641774
4.142626,0.11191293
4.11797,0.112053595
4.09346,0.11414468
4.069097,0.11732825
4.0448785,0.115874924
4.0208044,0.11602654
3.9968739,0.1183575
3.9730854,0.12052934
3.949438,0.1192271
3.925932,0.119755864
3.9025662,0.12084527
3.8793387,0.12100688
3.85625,0.12191983
3.8332987,0.12208112
3.8104842,0.122812055
3.7878044,0.12220448
3.7652605,0.122550175
3.742851,0.12406051
3.7205741,0.12519394
3.6984303,0.12437171
3.6764178,0.12689526
3.6545374,0.12526895
3.632786,0.12361864
3.6111646,0.122748956
3.5896719,0.12631796
3.5683074,0.12646332
3.5470698,0.12947401
3.525958,0.13375278
3.5049734,0.13413891
3.484112,0.13202217
3.4633756,0.13491079
3.4427624,0.13339677
3.4222722,0.13419545
3.4019039,0.13393089
3.3816562,0.13731143
3.3615294,0.13943058
3.3415227,0.14417979
3.321635,0.1439492
3.3018653,0.14701186
3.2822137,0.14501393
3.2626784,0.14410044
3.24326,0.1445151
3.2239568,0.14425339
3.2047691,0.14647755
3.1856952,0.14575782
3.1667347,0.14686002
3.1478868,0.1454309
3.1291518,0.14908835
3.1105278,0.15044822
3.0920146,0.15181902
3.0736122,0.15272799
3.0553188,0.15340462
3.037134,0.15575871
3.0190578,0.1559692
3.0010896,0.15472384
2.9832275,0.15735531
2.9654722,0.16074787
2.9478228,0.16072427
2.930278,0.16069464
2.9128375,0.16465047
2.895501,0.16488339
2.878268,0.1651132
2.8611374,0.16635576
2.8441086,0.1696513
2.8271809,0.16938195
2.8103547,0.17091319
2.7936282,0.16933537
2.7770011,0.1716576
2.7604735,0.17479128
2.7440438,0.17318967
2.7277122,0.17396021
2.711477,0.17982575
2.6953394,0.18521602
2.6792972,0.18035825
2.663351,0.18634921
2.6474993,0.18279894
2.631742,0.18306507
2.6160786,0.18332782
2.6005085,0.18582264
2.5850313,0.1869352
2.5696461,0.18975118
2.5543516,0.19031836
2.5391486,0.19031315
2.524037,0.18828571
2.5090146,0.18622717
2.4940815,0.18559405
2.4792366,0.18699841
2.4644816,0.18811801
2.4498136,0.18805785
2.4352329,0.19067582
2.420739,0.1948193
2.4063315,0.19719367
2.3920097,0.19867812
2.377773,0.20200694
2.363621,0.20629084
2.3495533,0.20474246
2.3355696,0.2047238
2.3216686,0.20876653
2.3078513,0.20560828
2.294115,0.21032366
2.280461,0.21094568
2.2668889,0.2154142
2.253397,0.21347919
2.2399855,0.21540618
2.2266536,0.2147378
2.213401,0.21471031
2.2002275,0.21368396
2.1871324,0.2136344
2.174115,0.21424505
2.1611753,0.21552782
2.1483126,0.21952423
2.1355262,0.22322056
2.1228166,0.22524163
2.1101818,0.22693464
2.0976226,0.22967911
2.0851378,0.23175128
2.0727284,0.22998352
2.060392,0.2327713
2.0481286,0.2291979
2.0359385,0.23235479
2.0238216,0.2355412
2.0117764,0.23731264
1.9998028,0.23873356
1.9879006,0.24528055
1.9760691,0.24454275
1.9643079,0.24304745
1.9526169,0.23929253
1.9409955,0.24109967
1.9294431,0.24517956
1.9179596,0.24664755
1.9065444,0.2507923
1.8951972,0.25382763
1.8839173,0.25419024
1.8727047,0.25260788
1.8615594,0.25138783
1.8504798,0.25053683
1.8394659,0.25282705
1.8285179,0.25752002
1.8176354,0.26186037
1.8068173,0.2638304
1.7960637,0.2637917
1.7853739,0.26292908
1.7747478,0.2608183
1.7641851,0.2648513
1.753685,0.27058074
1.7432475,0.2730345
1.7328722,0.278024
1.7225585,0.28221974
1.7123064,0.28009006
1.7021154,0.27322865
1.6919845,0.27658254
1.6819143,0.27867058
1.6719041,0.27773127
1.6619537,0.28595263
1.6520622,0.2889843
1.6422291,0.28584725
1.6324553,0.28844893
1.6227394,0.2919672
1.6130813,0.2919134
1.6034806,0.29048896
1.5939372,0.29496354
1.5844505,0.3026917
1.5750202,0.30081314
1.5656462,0.3016859
1.5563277,0.31329736
1.5470649,0.3165823
1.5378572,0.31895033
1.5287046,0.31943387
1.5196058,0.33473596
1.5105615,0.3328917
1.5015709,0.3314973
1.4926344,0.32861364
1.4837507,0.3340094
1.4749194,0.32960448
1.466141,0.33356047
1.4574152,0.33306456
1.4487412,0.3390714
1.4401187,0.33504647
1.4315474,0.33908302
1.4230273,0.34366643
1.4145577,0.34726524
1.4061385,0.34676057
1.3977697,0.35247582
1.3894506,0.3519713
1.3811809,0.3551309
1.3729603,0.3641378
1.3647891,0.36738282
