energy,intensity
97.76732,0.043956473
92.828835,0.045731336
88.18945,0.048367836
83.8307,0.05114276
79.735245,0.05397011
75.88682,0.056132544
72.27017,0.05817744
68.87099,0.060943324
65.67586,0.064948276
62.672165,0.06868716
59.848106,0.07260826
57.19261,0.07658939
54.69525,0.08077727
52.346306,0.08415213
50.136597,0.08745522
48.057564,0.09154106
46.10113,0.09596178
44.25976,0.10001981
42.52636,0.104506806
40.894283,0.1106678
39.357292,0.11606051
37.909534,0.12145124
36.545517,0.12598425
35.260098,0.13164872
34.04844,0.13471162
32.906017,0.14027181
31.828575,0.14584213
30.812122,0.15470968
29.85292,0.1615306
28.947456,0.1705997
28.092442,0.17765443
27.284779,0.18456446
26.521572,0.18971121
25.800108,0.19822708
25.117828,0.20233865
24.472345,0.2104667
23.861408,0.22133705
23.282911,0.22958298
22.734882,0.24023116
22.215462,0.25042742
21.722916,0.2559049
21.255604,0.2627618
20.812004,0.27073675
20.390675,0.27903932
19.990267,0.28637338
19.609518,0.2958618
19.247244,0.3052815
18.902327,0.3156959
18.573725,0.3230808
18.260456,0.33132946
17.961601,0.33692324
17.676302,0.34499225
17.403744,0.35156423
17.143167,0.36046863
16.893862,0.37034756
16.655159,0.37923306
16.426428,0.38937992
16.207083,0.40047842
15.996571,0.41001874
15.794373,0.416464
15.6,0.42314354
15.412999,0.43355784
15.232939,0.4413542
15.05942,0.4518439
14.892062,0.46199647
14.730514,0.47288424
14.574441,0.4806405
14.423531,0.49312577
14.277491,0.5037683
14.136047,0.5128186
13.998942,0.52157855
13.865933,0.5314032
13.73679,0.53978455
13.611302,0.5519149
13.48927,0.565958
13.3705015,0.5745724
13.254824,0.58781016
13.142069,0.59572864
13.032082,0.6034329
12.924716,0.61136925
12.819836,0.62181246
12.717309,0.630254
12.617017,0.6380284
12.518845,0.64361227
12.422684,0.6537419
12.328438,0.6649873
12.23601,0.6758305
12.145311,0.68482625
12.056257,0.6974791
11.968773,0.71241283
11.882783,0.72612965
11.798219,0.744022
11.7150135,0.7560054
11.633108,0.7660756
11.552444,0.76966345
11.472969,0.7801887
11.394629,0.784022
11.317378,0.79502404
11.241171,0.80907595
11.165965,0.8158269
11.091721,0.8240393
11.018401,0.8367772
10.945969,0.84709424
10.874393,0.85186785
10.803641,0.86363477
10.733684,0.8821267
10.664492,0.8892127
10.596042,0.89920884
10.528306,0.9134146
10.461264,0.9255198
10.394891,0.9318488
10.329167,0.934542
10.264075,0.94075185
10.199594,0.94926405
10.135705,0.95840204
10.072394,0.9622618
10.0096445,0.97047204
9.947442,0.9782938
9.885775,0.9782217
9.824624,0.9850501
9.763982,0.997122
9.703834,1.0031527
9.64417,1.013729
9.584979,1.0222636
9.526253,1.0227683
9.467979,1.024458
9.410151,1.0358503
9.3527565,1.0384775
9.295791,1.0460922
9.239244,1.0553259
9.183109,1.0619353
9.12738,1.0735143
9.07205,1.0786201
9.01711,1.0818074
8.962557,1.0840137
8.908382,1.0910953
8.854581,1.091488
8.801149,1.1017473
8.74808,1.1109227
8.69537,1.11398
8.643014,1.1230819
8.591007,1.1248057
8.539344,1.1259944
8.48802,1.1369122
8.437034,1.1442997
8.38638,1.1461855
8.336055,1.156069
8.286055,1.1626942
8.236377,1.158767
8.187016,1.1570551
8.13797,1.1602781
8.089236,1.1663698
8.04081,1.1712254
7.9926906,1.17664
7.9448724,1.1835392
7.8973556,1.1864275
7.850135,1.1870844
7.80321,1.1938506
7.7565756,1.2017777
7.710231,1.2003307
7.664174,1.2035618
7.6184006,1.2151809
7.57291,1.2232481
7.5276995,1.2242235
7.482766,1.2321577
7.4381084,1.2364291
7.3937244,1.229109
7.349611,1.2317407
7.3057675,1.2301809
7.2621903,1.2283568
7.218879,1.2413638
7.175831,1.2394942
7.133044,1.2467254
7.090517,1.2703955
7.0482473,1.2827567
7.0062337,1.2817369
6.9644732,1.2921352
6.9229665,1.2868667
6.881709,1.2766306
6.840701,1.2764229
6.79994,1.285784
6.7594247,1.2904807
6.719154,1.3012432
6.679125,1.3053427
6.6393356,1.3201703
6.599786,1.3247784
6.560474,1.332274
6.5213976,1.3386967
6.482556,1.3547888
6.443947,1.365387
6.4055705,1.3728864
6.367422,1.377688
6.3295035,1.3847934
6.291812,1.3843116
6.254346,1.3860977
6.217103,1.4009464
6.1800838,1.4131008
6.1432858,1.4170703
6.106708,1.4243681
6.0703483,1.435294
6.034206,1.435461
5.9982805,1.4537501
5.9625683,1.4597759
5.92707,1.4692543
5.891784,1.4674469
5.856708,1.4759873
5.8218417,1.4758401
5.787183,1.4861854
5.752732,1.4935699
5.718485,1.4966693
5.684444,1.4997516
5.650605,1.5028173
5.616968,1.513628
5.583532,1.5396111
5.550295,1.5509256
5.5172563,1.575491
5.4844136,1.5915504
5.4517684,1.5957489
5.419316,1.579828
5.387058,1.5836228
5.3549924,1.5711219
5.3231173,1.5808032
5.2914324,1.6040018
5.2599363,1.6078041
5.228627,1.6213232
5.1975055,1.6360645
5.166569,1.6242008
5.135817,1.6189283
5.105248,1.6212208
5.0748606,1.6214778
5.044654,1.6300347
5.0146275,1.6374763
4.9847803,1.6545699
4.955111,1.6594906
4.9256177,1.6635259
4.8963003,1.6577551
4.867158,1.6602161
4.8381886,1.6614454
4.809392,1.6753219
4.7807665,1.6880891
4.7523127,1.7003374
4.724026,1.7071346
4.695909,1.7080714
4.667959,1.712383
4.640177,1.7163718
4.612559,1.73295
4.585105,1.7569561
4.557816,1.7738527
4.530688,1.7905686
4.5037217,1.7990309
4.4769163,1.7948697
4.450271,1.7896141
4.423784,1.8042713
4.3974533,1.8173885
4.3712807,1.8256104
4.345264,1.8479124
4.3194017,1.8616686
4.293693,1.8589376
4.2681384,1.857469
4.2427354,1.8864028
4.217483,1.8832247
4.192381,1.8827139
4.16743,1.899217
4.142626,1.9235691
4.11797,1.927322
4.09346,1.9346015
4.069097,1.9640429
4.0448785,1.975084
4.0208044,1.9804032
3.9968739,1.9875333
3.9730854,2.0352817
3.949438,2.0334845
3.925932,2.030112
3.9025662,2.0281155
3.8793387,2.0376363
3.85625,2.0227008
3.8332987,2.0325365
3.8104842,2.04585
3.7878044,2.053496
3.7652605,2.060387
3.742851,2.0665102
3.7205741,2.082399
3.6984303,2.0901515
3.6764178,2.099504
3.6545374,2.1092904
3.632786,2.1103184
3.6111646,2.126978
3.5896719,2.1648145
3.5683074,2.1688154
3.5470698,2.1826205
3.525958,2.1961014
3.5049734,2.2001271
3.484112,2.1745074
3.4633756,2.1892054
3.4427624,2.2234201
3.4222722,2.2265406
3.4019039,2.2095397
3.3816562,2.2124548
3.3615294,2.2144606
3.3415227,2.2138011
3.321635,2.232744
3.3018653,2.2522748
3.2822137,2.2684164
3.2626784,2.2708626
3.24326,2.2683272
3.2239568,2.277851
3.2047691,2.2765238
3.1856952,2.2910666
3.1667347,2.3057022
3.1478868,2.3139672
3.1291518,2.329215
3.1105278,2.372129
3.0920146,2.3736413
3.0736122,2.3684661
3.0553188,2.4097602
3.037134,2.3988273
3.0190578,2.4074135
3.0010896,2.4184375
2.9832275,2.4485068
2.9654722,2.4371927
2.9478228,2.458687
2.930278,2.4545612
2.9128375,2.4667633
2.895501,2.480529
2.878268,2.493361
2.8611374,2.4905107
2.8441086,2.5074666
2.8271809,2.5199096
2.8103547,2.5210345
2.7936282,2.5486145
2.7770011,2.5691075
2.7604735,2.56343
2.7440438,2.5655372
2.7277122,2.589956
2.711477,2.5620477
2.6953394,2.5790052
2.6792972,2.5939045
2.663351,2.621985
2.6474993,2.6398797
2.631742,2.645746
2.6160786,2.6549203
2.6005085,2.6590803
2.5850313,2.665443
2.5696461,2.6593444
2.5543516,2.671285
2.5391486,2.6838448
2.524037,2.6970344
2.5090146,2.693488
2.4940815,2.7160249
2.4792366,2.734632
2.4644816,2.725647
2.4498136,2.7520518
2.4352329,2.7536094
2.420739,2.7514853
2.4063315,2.7480285
2.3920097,2.7821016
2.377773,2.7810342
2.363621,2.782928
2.3495533,2.7866008
2.3355696,2.8250644
2.3216686,2.8238258
2.3078513,2.860884
2.294115,2.9210916
2.280461,2.9392188
2.2668889,2.9080918
2.253397,2.9480767
2.2399855,2.9605374
2.2266536,2.9358375
2.213401,2.9540725
2.2002275,2.9545856
2.1871324,2.9576573
2.174115,2.951969
2.1611753,2.9387097
2.1483126,2.9515693
2.1355262,2.955631
2.1228166,2.9452567
2.1101818,2.962203
2.0976226,2.9674675
2.0851378,2.976871
2.0727284,3.0297523
2.060392,3.0556521
2.0481286,3.106589
2.0359385,3.1423213
2.0238216,3.1697526
2.0117764,3.138885
1.9998028,3.1504107
1.9879006,3.110786
1.9760691,3.1205864
1.9643079,3.137051
1.9526169,3.1268058
1.9409955,3.174728
1.9294431,3.1764123
1.9179596,3.2075546
1.9065444,3.2160878
1.8951972,3.2499135
1.8839173,3.243915
1.8727047,3.2610092
1.8615594,3.2766292
1.8504798,3.2899652
1.8394659,3.340477
1.8285179,3.393065
1.8176354,3.422175
1.8068173,3.441861
1.7960637,3.4616592
1.7853739,3.4587789
1.7747478,3.49259
1.7641851,3.520092
1.753685,3.5395107
1.7432475,3.5932174
1.7328722,3.5895705
1.7225585,3.5832207
1.7123064,3.5860023
1.7021154,3.590395
1.6919845,3.575817
1.6819143,3.592043
1.6719041,3.557047
1.6619537,3.615071
1.6520622,3.6463928
1.6422291,3.6461015
1.6324553,3.6527963
1.6227394,3.677354
1.6130813,3.7056785
1.6034806,3.7224278
1.5939372,3.7146258
1.5844505,3.7231083
1.5750202,3.7463226
1.5656462,3.764112
1.5563277,3.815598
1.5470649,3.8628678
1.5378572,3.8756008
1.5287046,3.9016564
1.5196058,3.8733735
1.5105615,3.8917542
1.5015709,3.8869877
1.4926344,3.9501796
1.4837507,3.9846053
1.4749194,3.9946682
1.466141,4.0294905
1.4574152,4.0556097
1.4487412,4.0508
1.4401187,4.037714
1.4315474,4.0893
1.4230273,4.0668044
1.4145577,4.065469
1.4061385,4.027797
1.3977697,4.037356
1.3894506,4.022828
1.3811809,4.0311303
1.3729603,4.0330367
1.3647891,4.0124583
