energy,intensity
97.76732,0.05473377
92.828835,0.057222884
88.18945,0.06005193
83.8307,0.063313
79.735245,0.06660142
75.88682,0.069519326
72.27017,0.07211348
68.87099,0.0756094
65.67586,0.07981889
62.672165,0.08385307
59.848106,0.0884898
57.19261,0.09290338
54.69525,0.097623594
52.346306,0.10208756
50.136597,0.10606518
48.057564,0.110835135
46.10113,0.11566484
44.25976,0.1204441
42.52636,0.12566105
40.894283,0.1331994
39.357292,0.1390658
37.909534,0.1456418
36.545517,0.15143563
35.260098,0.15666774
34.04844,0.16057828
32.906017,0.16774318
31.828575,0.17291926
30.812122,0.1821612
29.85292,0.18840367
28.947456,0.19730924
28.092442,0.2035214
27.284779,0.21023834
26.521572,0.2139868
25.800108,0.2207593
25.117828,0.22478852
24.472345,0.23220225
23.861408,0.24241097
23.282911,0.24949518
22.734882,0.257491
22.215462,0.26540855
21.722916,0.2698877
21.255604,0.27459052
20.812004,0.27988464
20.390675,0.2868795
19.990267,0.2941525
19.609518,0.3038661
19.247244,0.31034055
18.902327,0.32069352
18.573725,0.32550645
18.260456,0.33260292
17.961601,0.33684233
17.676302,0.34433448
17.403744,0.34747237
17.143167,0.3537713
16.893862,0.36045447
16.655159,0.36745295
16.426428,0.3760201
16.207083,0.384158
15.996571,0.39057627
15.794373,0.39576042
15.6,0.40003937
15.412999,0.40800452
15.232939,0.4144493
15.05942,0.42105833
14.892062,0.42969388
14.730514,0.43884602
14.574441,0.44434324
14.423531,0.45282117
14.277491,0.4629497
14.136047,0.47179714
13.998942,0.47631407
13.865933,0.4827698
13.73679,0.48857802
13.611302,0.49681956
13.48927,0.507132
13.3705015,0.5140281
13.254824,0.52322894
13.142069,0.5323627
13.032082,0.5387515
12.924716,0.5431145
12.819836,0.5516389
12.717309,0.5588289
12.617017,0.5623495
12.518845,0.5655986
12.422684,0.57301843
12.328438,0.5795209
12.23601,0.5879369
12.145311,0.59376335
12.056257,0.6039355
11.968773,0.61442125
11.882783,0.62693965
11.798219,0.6391938
11.7150135,0.65068066
11.633108,0.65438735
11.552444,0.6540504
11.472969,0.65807444
11.394629,0.65813476
11.317378,0.6608292
11.241171,0.67526424
11.165965,0.6790313
11.091721,0.680694
11.018401,0.6927419
10.945969,0.69931746
10.874393,0.7015147
10.803641,0.70785767
10.733684,0.7216783
10.664492,0.7233625
10.596042,0.7300927
10.528306,0.74390066
10.461264,0.75700366
10.394891,0.7580623
10.329167,0.76373005
10.264075,0.7699894
10.199594,0.7764245
10.135705,0.78691065
10.072394,0.79214543
10.0096445,0.79987
9.947442,0.8070632
9.885775,0.8078343
9.824624,0.81670845
9.763982,0.82818145
9.703834,0.8381074
9.64417,0.85293674
9.584979,0.86381423
9.526253,0.8660881
9.467979,0.8654324
9.410151,0.87615615
9.3527565,0.87516165
9.295791,0.8839644
9.239244,0.89267766
9.183109,0.9024075
9.12738,0.91364956
9.07205,0.9267513
9.01711,0.93143094
8.962557,0.9405055
8.908382,0.94899845
8.854581,0.9542724
8.801149,0.96848726
8.74808,0.983832
8.69537,0.9896288
8.643014,1.0023496
8.591007,1.0114625
8.539344,1.0121356
8.48802,1.0215088
8.437034,1.0312994
8.38638,1.0335425
8.336055,1.042746
8.286055,1.0507921
8.236377,1.0474252
8.187016,1.0523202
8.13797,1.0638412
8.089236,1.0733045
8.04081,1.0794071
7.9926906,1.0848148
7.9448724,1.0944537
7.8973556,1.0991986
7.850135,1.099701
7.80321,1.1104116
7.7565756,1.1266434
7.710231,1.1337924
7.664174,1.144019
7.6184006,1.1650093
7.57291,1.1794921
7.5276995,1.186769
7.482766,1.1911764
7.4381084,1.1977419
7.3937244,1.1970694
7.349611,1.2028702
7.3057675,1.2023307
7.2621903,1.2069436
7.218879,1.2226405
7.175831,1.2200513
7.133044,1.2265546
7.090517,1.254203
7.0482473,1.2699726
7.0062337,1.2672164
6.9644732,1.2821186
6.9229665,1.2784693
6.881709,1.2660713
6.840701,1.2638881
6.79994,1.2699683
6.7594247,1.2715602
6.719154,1.2817767
6.679125,1.2851067
6.6393356,1.295654
6.599786,1.3003353
6.560474,1.2981583
6.5213976,1.2979141
6.482556,1.3070362
6.443947,1.3146416
6.4055705,1.3161651
6.367422,1.3181161
6.3295035,1.328768
6.291812,1.3270265
6.254346,1.3282373
6.217103,1.3413367
6.1800838,1.3477252
6.1432858,1.3505933
6.106708,1.3532093
6.0703483,1.3589206
6.034206,1.3511639
5.9982805,1.3704019
5.9625683,1.371541
5.92707,1.3797555
5.891784,1.3808653
5.856708,1.3918651
5.8218417,1.382976
5.787183,1.3854825
5.752732,1.3887271
5.718485,1.3985689
5.684444,1.4005522
5.650605,1.3996801
5.616968,1.4103906
5.583532,1.4276865
5.550295,1.4333556
5.5172563,1.4556367
5.4844136,1.4704486
5.4517684,1.4763213
5.419316,1.4661212
5.387058,1.4730121
5.3549924,1.4679908
5.3231173,1.4737781
5.2914324,1.5007304
5.2599363,1.5003223
5.228627,1.5170891
5.1975055,1.5393156
5.166569,1.5263101
5.135817,1.5088493
5.105248,1.5227236
5.0748606,1.5243952
5.044654,1.5375568
5.0146275,1.5505309
4.9847803,1.56827
4.955111,1.5782467
4.9256177,1.5820907
4.8963003,1.5802844
4.867158,1.5861633
4.8381886,1.586649
4.809392,1.6046104
4.7807665,1.6187782
4.7523127,1.6299994
4.724026,1.6440666
4.695909,1.6557678
4.667959,1.6585207
4.640177,1.6625
4.612559,1.6819069
4.585105,1.7090938
4.557816,1.7247473
4.530688,1.7424523
4.5037217,1.7590164
4.4769163,1.7490969
4.450271,1.7455267
4.423784,1.7615631
4.3974533,1.7694666
4.3712807,1.7837187
4.345264,1.8134626
4.3194017,1.8317229
4.293693,1.8321975
4.2681384,1.8329523
4.2427354,1.8668776
4.217483,1.8577244
4.192381,1.8570611
4.16743,1.8786417
4.142626,1.9144475
4.11797,1.9149697
4.09346,1.9264355
4.069097,1.9572566
4.0448785,1.9610707
4.0208044,1.9735355
3.9968739,1.9813519
3.9730854,2.0195527
3.949438,2.023917
3.925932,2.0319626
3.9025662,2.0318391
3.8793387,2.0507483
3.85625,2.0419216
3.8332987,2.0541472
3.8104842,2.0630136
3.7878044,2.0722964
3.7652605,2.0758264
3.742851,2.0925262
3.7205741,2.106227
3.6984303,2.1180518
3.6764178,2.1295478
3.6545374,2.1474674
3.632786,2.1527243
3.6111646,2.1688333
3.5896719,2.2162325
3.5683074,2.227058
3.5470698,2.2412114
3.525958,2.248448
3.5049734,2.2590072
3.484112,2.2283173
3.4633756,2.2374628
3.4427624,2.273233
3.4222722,2.2898161
3.4019039,2.2907097
3.3816562,2.2984085
3.3615294,2.303523
3.3415227,2.298178
3.321635,2.308875
3.3018653,2.3266606
3.2822137,2.3383775
3.2626784,2.3461418
3.24326,2.3498828
3.2239568,2.376575
3.2047691,2.3758385
3.1856952,2.4055748
3.1667347,2.4172242
3.1478868,2.4247718
3.1291518,2.443005
3.1105278,2.4837973
3.0920146,2.4883285
3.0736122,2.4909327
3.0553188,2.5334358
3.037134,2.5304208
3.0190578,2.5441272
3.0010896,2.5564542
2.9832275,2.5912476
2.9654722,2.5719662
2.9478228,2.5922956
2.930278,2.6023605
2.9128375,2.6164458
2.895501,2.628598
2.878268,2.6534247
2.8611374,2.654581
2.8441086,2.6760962
2.8271809,2.6972594
2.8103547,2.6932404
2.7936282,2.7286143
2.7770011,2.7444282
2.7604735,2.7487512
2.7440438,2.7705054
2.7277122,2.7881587
2.711477,2.7764452
2.6953394,2.8151755
2.6792972,2.826607
2.663351,2.8626297
2.6474993,2.8923955
2.631742,2.91137
2.6160786,2.9149127
2.6005085,2.9228647
2.5850313,2.941489
2.5696461,2.942699
2.5543516,2.966577
2.5391486,2.967741
2.524037,2.9849334
2.5090146,2.9993293
2.4940815,3.01787
2.4792366,3.0541127
2.4644816,3.0682702
2.4498136,3.092573
2.4352329,3.1057181
2.420739,3.1026998
2.4063315,3.1049695
2.3920097,3.1363194
2.377773,3.1544871
2.363621,3.1666107
2.3495533,3.1781478
2.3355696,3.2258
2.3216686,3.2350986
2.3078513,3.2645435
2.294115,3.341106
2.280461,3.3579235
2.2668889,3.3414845
2.253397,3.3879342
2.2399855,3.4147072
2.2266536,3.3907688
2.213401,3.4215767
2.2002275,3.4248881
2.1871324,3.434098
2.174115,3.4319313
2.1611753,3.4269257
2.1483126,3.4393258
2.1355262,3.4585571
2.1228166,3.4689953
2.1101818,3.489077
2.0976226,3.5141244
2.0851378,3.528892
2.0727284,3.600504
2.060392,3.624883
2.0481286,3.6778092
2.0359385,3.7126796
2.0238216,3.7392166
2.0117764,3.6900852
1.9998028,3.7092724
1.9879006,3.7015064
1.9760691,3.7170498
1.9643079,3.7504032
1.9526169,3.7564838
1.9409955,3.8089252
1.9294431,3.8106408
1.9179596,3.8417916
1.9065444,3.8556457
1.8951972,3.9025035
1.8839173,3.9034977
1.8727047,3.933078
1.8615594,3.9480376
1.8504798,3.954398
1.8394659,4.01995
1.8285179,4.081375
1.8176354,4.114606
1.8068173,4.1255674
1.7960637,4.173734
1.7853739,4.1572094
1.7747478,4.196021
1.7641851,4.2227917
1.753685,4.262993
1.7432475,4.344375
1.7328722,4.34858
1.7225585,4.3450875
1.7123064,4.33885
1.7021154,4.3477507
1.6919845,4.326541
1.6819143,4.3489885
1.6719041,4.3411264
1.6619537,4.390728
1.6520622,4.4434085
1.6422291,4.4647045
1.6324553,4.494996
1.6227394,4.5165358
1.6130813,4.5489836
1.6034806,4.5635314
1.5939372,4.5516477
1.5844505,4.5880723
1.5750202,4.6210794
1.5656462,4.643178
1.5563277,4.6896553
1.5470649,4.7280674
1.5378572,4.753541
1.5287046,4.768691
1.5196058,4.7637706
1.5105615,4.769202
1.5015709,4.79195
1.4926344,4.881007
1.4837507,4.924924
1.4749194,4.9406176
1.466141,4.9920077
1.4574152,5.0189037
1.4487412,5.020865
1.4401187,5.005514
1.4315474,5.06594
1.4230273,5.039079
1.4145577,5.0466475
1.4061385,5.0241528
1.3977697,5.0012064
1.3894506,4.9746675
1.3811809,4.9760427
1.3729603,4.9497333
1.3647891,4.939968
