energy,intensity
97.76732,0.05323238
92.828835,0.055923425
88.18945,0.059063148
83.8307,0.062342156
79.735245,0.06572652
75.88682,0.0684277
72.27017,0.07120853
68.87099,0.07482861
65.67586,0.07908863
62.672165,0.083713934
59.848106,0.08846551
57.19261,0.09348784
54.69525,0.09842073
52.346306,0.10292047
50.136597,0.10725367
48.057564,0.112075046
46.10113,0.117398724
44.25976,0.12234861
42.52636,0.12767737
40.894283,0.13547388
39.357292,0.14231534
37.909534,0.14939883
36.545517,0.15517381
35.260098,0.16264428
34.04844,0.1673651
32.906017,0.17657642
31.828575,0.18287341
30.812122,0.19244376
29.85292,0.20037973
28.947456,0.20955947
28.092442,0.21826562
27.284779,0.22611146
26.521572,0.23305659
25.800108,0.24182689
25.117828,0.248685
24.472345,0.2587481
23.861408,0.26994103
23.282911,0.2805182
22.734882,0.29105175
22.215462,0.30276334
21.722916,0.31009653
21.255604,0.3185551
20.812004,0.3282081
20.390675,0.3385535
19.990267,0.349915
19.609518,0.36189708
19.247244,0.3726352
18.902327,0.3862777
18.573725,0.39639798
18.260456,0.40805334
17.961601,0.41654196
17.676302,0.4282804
17.403744,0.43941355
17.143167,0.45041618
16.893862,0.46222478
16.655159,0.4745213
16.426428,0.4861719
16.207083,0.49840108
15.996571,0.50841236
15.794373,0.51832557
15.6,0.527765
15.412999,0.5409573
15.232939,0.5512633
15.05942,0.5635021
14.892062,0.57490945
14.730514,0.5897979
14.574441,0.6005015
14.423531,0.61605465
14.277491,0.6313137
14.136047,0.6422569
13.998942,0.65488005
13.865933,0.66766036
13.73679,0.67795753
13.611302,0.690294
13.48927,0.70698965
13.3705015,0.72033507
13.254824,0.73583186
13.142069,0.74767435
13.032082,0.76011807
12.924716,0.76811916
12.819836,0.77984464
12.717309,0.79001725
12.617017,0.80297816
12.518845,0.8135705
12.422684,0.8272384
12.328438,0.83686304
12.23601,0.84781677
12.145311,0.85809696
12.056257,0.86479694
11.968773,0.876218
11.882783,0.8879402
11.798219,0.9051446
11.7150135,0.91293794
11.633108,0.9189909
11.552444,0.9240238
11.472969,0.9318182
11.394629,0.9332503
11.317378,0.9383365
11.241171,0.9467662
11.165965,0.95314294
11.091721,0.95467484
11.018401,0.96894157
10.945969,0.97615004
10.874393,0.98498076
10.803641,0.9950634
10.733684,1.0076418
10.664492,1.0164961
10.596042,1.0267658
10.528306,1.038203
10.461264,1.0488853
10.394891,1.0541847
10.329167,1.0594852
10.264075,1.0720098
10.199594,1.0814941
10.135705,1.0920393
10.072394,1.0986148
10.0096445,1.1060828
9.947442,1.1134374
9.885775,1.1134734
9.824624,1.1235105
9.763982,1.1394191
9.703834,1.1485784
9.64417,1.1599036
9.584979,1.173435
9.526253,1.1786852
9.467979,1.1839443
9.410151,1.1980156
9.3527565,1.208009
9.295791,1.218695
9.239244,1.2263111
9.183109,1.2349154
9.12738,1.2483468
9.07205,1.2590041
9.01711,1.2644186
8.962557,1.2747093
8.908382,1.2855608
8.854581,1.284673
8.801149,1.2964354
8.74808,1.3059614
8.69537,1.3130423
8.643014,1.3216687
8.591007,1.3281472
8.539344,1.3275025
8.48802,1.3360431
8.437034,1.3448061
8.38638,1.3465167
8.336055,1.351682
8.286055,1.355278
8.236377,1.3498654
8.187016,1.3445128
8.13797,1.3470796
8.089236,1.3555546
8.04081,1.3575733
7.9926906,1.3644735
7.9448724,1.3686616
7.8973556,1.3728479
7.850135,1.3733304
7.80321,1.3832651
7.7565756,1.395329
7.710231,1.4027736
7.664174,1.4108241
7.6184006,1.4261683
7.57291,1.4368463
7.5276995,1.4416145
7.482766,1.4469695
7.4381084,1.4576108
7.3937244,1.45555
7.349611,1.4627044
7.3057675,1.4682994
7.2621903,1.4759094
7.218879,1.488992
7.175831,1.496507
7.133044,1.50365
7.090517,1.5286561
7.0482473,1.5431849
7.0062337,1.5408223
6.9644732,1.5504787
6.9229665,1.5465491
6.881709,1.5429386
6.840701,1.5426278
6.79994,1.5544394
6.7594247,1.5568764
6.719154,1.5655584
6.679125,1.5718948
6.6393356,1.583285
6.599786,1.5844051
6.560474,1.5865886
6.5213976,1.5918615
6.482556,1.6027447
6.443947,1.6114452
6.4055705,1.6195116
6.367422,1.6262468
6.3295035,1.6369079
6.291812,1.6363195
6.254346,1.6410093
6.217103,1.6571516
6.1800838,1.6656668
6.1432858,1.6678371
6.106708,1.6706874
6.0703483,1.6771033
6.034206,1.6763102
5.9982805,1.6926496
5.9625683,1.701325
5.92707,1.704649
5.891784,1.7032646
5.856708,1.7152027
5.8218417,1.7104967
5.787183,1.7134578
5.752732,1.724477
5.718485,1.7302301
5.684444,1.7349666
5.650605,1.732754
5.616968,1.7436479
5.583532,1.7689259
5.550295,1.7727108
5.5172563,1.7978141
5.4844136,1.8178549
5.4517684,1.8178107
5.419316,1.8029512
5.387058,1.8083515
5.3549924,1.8075097
5.3231173,1.8158762
5.2914324,1.8374611
5.2599363,1.8423853
5.228627,1.8575866
5.1975055,1.8726242
5.166569,1.8635839
5.135817,1.8552166
5.105248,1.8663254
5.0748606,1.8689091
5.044654,1.8838453
5.0146275,1.8977334
4.9847803,1.9143442
4.955111,1.9231675
4.9256177,1.9290766
4.8963003,1.9207401
4.867158,1.928956
4.8381886,1.9344984
4.809392,1.9472902
4.7807665,1.9553016
4.7523127,1.9618099
4.724026,1.9649427
4.695909,1.9698994
4.667959,1.968618
4.640177,1.9744539
4.612559,1.9928926
4.585105,2.0060933
4.557816,2.021293
4.530688,2.0308297
4.5037217,2.039762
4.4769163,2.0350947
4.450271,2.028338
4.423784,2.042454
4.3974533,2.0513787
4.3712807,2.0536869
4.345264,2.0800304
4.3194017,2.0941668
4.293693,2.0897815
4.2681384,2.0920784
4.2427354,2.1169367
4.217483,2.1092803
4.192381,2.11255
4.16743,2.1300805
4.142626,2.1523068
4.11797,2.1584878
4.09346,2.172832
4.069097,2.1961992
4.0448785,2.2010849
4.0208044,2.212818
3.9968739,2.2187943
3.9730854,2.2547586
3.949438,2.2553794
3.925932,2.264071
3.9025662,2.2631025
3.8793387,2.274405
3.85625,2.2631488
3.8332987,2.2782156
3.8104842,2.2933817
3.7878044,2.3086483
3.7652605,2.3174531
3.742851,2.3340464
3.7205741,2.3511462
3.6984303,2.3569713
3.6764178,2.3623867
3.6545374,2.3805075
3.632786,2.3851595
3.6111646,2.397428
3.5896719,2.4413376
3.5683074,2.4575837
3.5470698,2.4722981
3.525958,2.4838035
3.5049734,2.496601
3.484112,2.4777617
3.4633756,2.4879813
3.4427624,2.5121648
3.4222722,2.531877
3.4019039,2.5278122
3.3816562,2.5339222
3.3615294,2.5408797
3.3415227,2.5434794
3.321635,2.5495195
3.3018653,2.5713873
3.2822137,2.5792553
3.2626784,2.588017
3.24326,2.5918615
3.2239568,2.603323
3.2047691,2.6057582
3.1856952,2.6172543
3.1667347,2.6343017
3.1478868,2.646381
3.1291518,2.6710498
3.1105278,2.697789
3.0920146,2.7045414
3.0736122,2.7103314
3.0553188,2.7493916
3.037134,2.751498
3.0190578,2.7655654
3.0010896,2.7777648
2.9832275,2.8202162
2.9654722,2.7998557
2.9478228,2.8235219
2.930278,2.8300114
2.9128375,2.8474548
2.895501,2.865006
2.878268,2.8856938
2.8611374,2.8846853
2.8441086,2.9029791
2.8271809,2.9301276
2.8103547,2.9331908
2.7936282,2.9689612
2.7770011,2.9904008
2.7604735,2.985667
2.7440438,2.9945393
2.7277122,3.0114028
2.711477,3.0026343
2.6953394,3.0265431
2.6792972,3.0354428
2.663351,3.0732613
2.6474993,3.0998964
2.631742,3.1107256
2.6160786,3.124351
2.6005085,3.1397042
2.5850313,3.158502
2.5696461,3.161577
2.5543516,3.1827834
2.5391486,3.1926823
2.524037,3.2071908
2.5090146,3.2049606
2.4940815,3.2218196
2.4792366,3.2428696
2.4644816,3.2569776
2.4498136,3.2835968
2.4352329,3.2937083
2.420739,3.3002212
2.4063315,3.3103168
2.3920097,3.342289
2.377773,3.3396854
2.363621,3.3523033
2.3495533,3.3767045
2.3355696,3.4180782
2.3216686,3.4203906
2.3078513,3.4572425
2.294115,3.5254562
2.280461,3.5567613
2.2668889,3.5447173
2.253397,3.5930285
2.2399855,3.6074047
2.2266536,3.5767884
2.213401,3.5916374
2.2002275,3.595307
2.1871324,3.5922475
2.174115,3.583006
2.1611753,3.582267
2.1483126,3.5847733
2.1355262,3.5939872
2.1228166,3.6107128
2.1101818,3.646106
2.0976226,3.657544
2.0851378,3.672474
2.0727284,3.744945
2.060392,3.7589028
2.0481286,3.8161805
2.0359385,3.8547337
2.0238216,3.896484
2.0117764,3.8728566
1.9998028,3.8793292
1.9879006,3.8645394
1.9760691,3.8692913
1.9643079,3.8894992
1.9526169,3.904599
1.9409955,3.936214
1.9294431,3.9627953
1.9179596,3.9895527
1.9065444,4.020301
1.8951972,4.070445
1.8839173,4.0770726
1.8727047,4.103812
1.8615594,4.108083
1.8504798,4.1224694
1.8394659,4.178757
1.8285179,4.226826
1.8176354,4.2441373
1.8068173,4.272766
1.7960637,4.299967
1.7853739,4.299664
1.7747478,4.342604
1.7641851,4.3686047
1.753685,4.3931046
1.7432475,4.4685946
1.7328722,4.476899
1.7225585,4.4826117
1.7123064,4.4797435
1.7021154,4.481804
1.6919845,4.4717035
1.6819143,4.4915648
1.6719041,4.48021
1.6619537,4.5393887
1.6520622,4.586801
1.6422291,4.603646
1.6324553,4.627647
1.6227394,4.6392336
1.6130813,4.667911
1.6034806,4.6813583
1.5939372,4.6829453
1.5844505,4.698142
1.5750202,4.7308855
1.5656462,4.7425027
1.5563277,4.8054495
1.5470649,4.8276453
1.5378572,4.8499346
1.5287046,4.8761206
1.5196058,4.8785386
1.5105615,4.8875422
1.5015709,4.9090633
1.4926344,4.980323
1.4837507,5.015039
1.4749194,5.024374
1.466141,5.0366144
1.4574152,5.078736
1.4487412,5.079048
1.4401187,5.0761557
1.4315474,5.1227922
1.4230273,5.101378
1.4145577,5.094936
1.4061385,5.073763
1.3977697,5.079187
1.3894506,5.0593905
1.3811809,5.0707436
1.3729603,5.070407
1.3647891,5.062429
