energy,intensity
97.76732,0.048876867
92.828835,0.051085718
88.18945,0.05390501
83.8307,0.056603767
79.735245,0.059511125
75.88682,0.06157152
72.27017,0.06415002
68.87099,0.067020774
65.67586,0.070790306
62.672165,0.07476281
59.848106,0.07889774
57.19261,0.08314547
54.69525,0.087313846
52.346306,0.090759926
50.136597,0.09403537
48.057564,0.098224424
46.10113,0.102455914
44.25976,0.10655427
42.52636,0.11106837
40.894283,0.11759786
39.357292,0.12344583
37.909534,0.13007705
36.545517,0.13664202
35.260098,0.14294232
34.04844,0.14743152
32.906017,0.15497915
31.828575,0.1604994
30.812122,0.17069948
29.85292,0.17832626
28.947456,0.18691657
28.092442,0.19415757
27.284779,0.20091689
26.521572,0.20445195
25.800108,0.21163373
25.117828,0.21524155
24.472345,0.22281912
23.861408,0.23187402
23.282911,0.23875883
22.734882,0.24540909
22.215462,0.2526517
21.722916,0.25490135
21.255604,0.25961655
20.812004,0.265639
20.390675,0.2708428
19.990267,0.27539536
19.609518,0.28363305
19.247244,0.28731042
18.902327,0.29401392
18.573725,0.29843304
18.260456,0.30395082
17.961601,0.30682343
17.676302,0.3112823
17.403744,0.31490463
17.143167,0.3193521
16.893862,0.3256994
16.655159,0.33429405
16.426428,0.34054154
16.207083,0.3473025
15.996571,0.3535083
15.794373,0.35748178
15.6,0.35867524
15.412999,0.3664215
15.232939,0.36970326
15.05942,0.37434918
14.892062,0.37962955
14.730514,0.38734478
14.574441,0.3922904
14.423531,0.4010299
14.277491,0.4098143
14.136047,0.41381207
13.998942,0.4178649
13.865933,0.4228166
13.73679,0.4252046
13.611302,0.4319009
13.48927,0.44087186
13.3705015,0.4459838
13.254824,0.45470038
13.142069,0.4604815
13.032082,0.46670985
12.924716,0.46890005
12.819836,0.47432333
12.717309,0.4790615
12.617017,0.4847126
12.518845,0.4890941
12.422684,0.49358207
12.328438,0.49912357
12.23601,0.5065758
12.145311,0.5116751
12.056257,0.5209997
11.968773,0.53330785
11.882783,0.54328245
11.798219,0.5578933
11.7150135,0.5670661
11.633108,0.5683102
11.552444,0.56523335
11.472969,0.5706689
11.394629,0.5684703
11.317378,0.574662
11.241171,0.58385855
11.165965,0.59013385
11.091721,0.59041524
11.018401,0.60238993
10.945969,0.6059778
10.874393,0.6099664
10.803641,0.61772764
10.733684,0.6309608
10.664492,0.63014853
10.596042,0.6354537
10.528306,0.64602983
10.461264,0.6562828
10.394891,0.65795654
10.329167,0.663128
10.264075,0.6673334
10.199594,0.6751145
10.135705,0.6810907
10.072394,0.68652594
10.0096445,0.69184613
9.947442,0.69500345
9.885775,0.6921354
9.824624,0.69881016
9.763982,0.7105926
9.703834,0.7170939
9.64417,0.72966796
9.584979,0.73811615
9.526253,0.7371741
9.467979,0.73818076
9.410151,0.7464237
9.3527565,0.7489842
9.295791,0.7559192
9.239244,0.7660512
9.183109,0.7751653
9.12738,0.7862672
9.07205,0.79586864
9.01711,0.7963661
8.962557,0.8007269
8.908382,0.8088592
8.854581,0.81541526
8.801149,0.8332459
8.74808,0.8481023
8.69537,0.85508204
8.643014,0.87102336
8.591007,0.88103294
8.539344,0.87989604
8.48802,0.8913802
8.437034,0.9005567
8.38638,0.8987176
8.336055,0.9076301
8.286055,0.9159132
8.236377,0.9143795
8.187016,0.9190049
8.13797,0.92775804
8.089236,0.93945587
8.04081,0.9451138
7.9926906,0.9511674
7.9448724,0.95762396
7.8973556,0.9608095
7.850135,0.9608499
7.80321,0.9684904
7.7565756,0.9823701
7.710231,0.9846935
7.664174,0.99402416
7.6184006,1.0068641
7.57291,1.0194374
7.5276995,1.016872
7.482766,1.0212302
7.4381084,1.0252125
7.3937244,1.0158381
7.349611,1.020749
7.3057675,1.0187185
7.2621903,1.0238308
7.218879,1.0404423
7.175831,1.0414183
7.133044,1.0450164
7.090517,1.0730107
7.0482473,1.0889308
7.0062337,1.0830146
6.9644732,1.097647
6.9229665,1.089533
6.881709,1.0795925
6.840701,1.0748042
6.79994,1.0861627
6.7594247,1.0877279
6.719154,1.100087
6.679125,1.1053745
6.6393356,1.1176903
6.599786,1.1202041
6.560474,1.1200492
6.5213976,1.1247548
6.482556,1.1379957
6.443947,1.1509033
6.4055705,1.1516726
6.367422,1.1572031
6.3295035,1.1678094
6.291812,1.1644108
6.254346,1.1660416
6.217103,1.1812083
6.1800838,1.1939279
6.1432858,1.1932724
6.106708,1.1961361
6.0703483,1.2047371
6.034206,1.2001516
5.9982805,1.2230885
5.9625683,1.2340702
5.92707,1.2451392
5.891784,1.2434695
5.856708,1.2561277
5.8218417,1.2534156
5.787183,1.258662
5.752732,1.2669576
5.718485,1.2796283
5.684444,1.2778313
5.650605,1.2800826
5.616968,1.291112
5.583532,1.3220092
5.550295,1.3252127
5.5172563,1.3547484
5.4844136,1.3747857
5.4517684,1.3806189
5.419316,1.3679687
5.387058,1.371574
5.3549924,1.3610603
5.3231173,1.3703026
5.2914324,1.3999312
5.2599363,1.404722
5.228627,1.4267533
5.1975055,1.4475996
5.166569,1.4323575
5.135817,1.4180126
5.105248,1.422518
5.0748606,1.4264538
5.044654,1.437876
5.0146275,1.449384
4.9847803,1.4717653
4.955111,1.4735385
4.9256177,1.4770507
4.8963003,1.4722408
4.867158,1.476577
4.8381886,1.4752052
4.809392,1.4973342
4.7807665,1.5081236
4.7523127,1.5263278
4.724026,1.5348519
4.695909,1.5412567
4.667959,1.5330496
4.640177,1.5350249
4.612559,1.5546137
4.585105,1.5857929
4.557816,1.6010273
4.530688,1.6154253
4.5037217,1.6334879
4.4769163,1.6244398
4.450271,1.6178373
4.423784,1.634423
4.3974533,1.6471838
4.3712807,1.6523917
4.345264,1.6796772
4.3194017,1.6924257
4.293693,1.6924051
4.2681384,1.6878961
4.2427354,1.711704
4.217483,1.7043787
4.192381,1.7007172
4.16743,1.7231054
4.142626,1.7527177
4.11797,1.7614475
4.09346,1.7709291
4.069097,1.8011763
4.0448785,1.8083677
4.0208044,1.8184725
3.9968739,1.8257239
3.9730854,1.8728688
3.949438,1.8631074
3.925932,1.8698202
3.9025662,1.856437
3.8793387,1.8739208
3.85625,1.8678048
3.8332987,1.8823999
3.8104842,1.8887119
3.7878044,1.9065437
3.7652605,1.9079233
3.742851,1.9177933
3.7205741,1.9296668
3.6984303,1.9416132
3.6764178,1.9508669
3.6545374,1.9617516
3.632786,1.9666961
3.6111646,1.9853138
3.5896719,2.0235167
3.5683074,2.036039
3.5470698,2.0515075
3.525958,2.0609057
3.5049734,2.064537
3.484112,2.036437
3.4633756,2.0490491
3.4427624,2.0760927
3.4222722,2.0851257
3.4019039,2.0847936
3.3816562,2.0946975
3.3615294,2.0981603
3.3415227,2.0920205
3.321635,2.098858
3.3018653,2.122429
3.2822137,2.12938
3.2626784,2.1488113
3.24326,2.1464412
3.2239568,2.1714647
3.2047691,2.1758494
3.1856952,2.1893332
3.1667347,2.1941805
3.1478868,2.2036247
3.1291518,2.2251782
3.1105278,2.267937
3.0920146,2.2739952
3.0736122,2.288556
3.0553188,2.3265178
3.037134,2.320829
3.0190578,2.334243
3.0010896,2.3545141
2.9832275,2.3885856
2.9654722,2.3592691
2.9478228,2.3901575
2.930278,2.3930607
2.9128375,2.399905
2.895501,2.4142742
2.878268,2.4393327
2.8611374,2.4341278
2.8441086,2.4451246
2.8271809,2.4649055
2.8103547,2.458978
2.7936282,2.5038738
2.7770011,2.532473
2.7604735,2.537632
2.7440438,2.5422337
2.7277122,2.5654466
2.711477,2.5432878
2.6953394,2.5579758
2.6792972,2.5700371
2.663351,2.6028862
2.6474993,2.627254
2.631742,2.6407757
2.6160786,2.651587
2.6005085,2.659639
2.5850313,2.675563
2.5696461,2.6751804
2.5543516,2.6855087
2.5391486,2.6798384
2.524037,2.6993372
2.5090146,2.7015975
2.4940815,2.7265136
2.4792366,2.751632
2.4644816,2.7515945
2.4498136,2.7846801
2.4352329,2.7870302
2.420739,2.7881074
2.4063315,2.7933257
2.3920097,2.8307076
2.377773,2.8287084
2.363621,2.8296585
2.3495533,2.841034
2.3355696,2.8872902
2.3216686,2.9052036
2.3078513,2.9408598
2.294115,3.0294209
2.280461,3.0329013
2.2668889,3.0151582
2.253397,3.0590088
2.2399855,3.06824
2.2266536,3.041575
2.213401,3.0656955
2.2002275,3.0794272
2.1871324,3.0799239
2.174115,3.067615
2.1611753,3.0543756
2.1483126,3.0577798
2.1355262,3.0801716
2.1228166,3.0609589
2.1101818,3.1040804
2.0976226,3.1115804
2.0851378,3.1336956
2.0727284,3.1910214
2.060392,3.2263508
2.0481286,3.2889538
2.0359385,3.3307755
2.0238216,3.3499992
2.0117764,3.3223774
1.9998028,3.327008
1.9879006,3.303063
1.9760691,3.3073947
1.9643079,3.3242383
1.9526169,3.3210685
1.9409955,3.3574252
1.9294431,3.3624625
1.9179596,3.391688
1.9065444,3.4173312
1.8951972,3.449295
1.8839173,3.436004
1.8727047,3.4565766
1.8615594,3.4749293
1.8504798,3.4949498
1.8394659,3.5451095
1.8285179,3.5949483
1.8176354,3.6364608
1.8068173,3.6461685
1.7960637,3.685801
1.7853739,3.6712384
1.7747478,3.7071414
1.7641851,3.735927
1.753685,3.7748706
1.7432475,3.833321
1.7328722,3.8302732
1.7225585,3.8287387
1.7123064,3.809225
1.7021154,3.7995865
1.6919845,3.7879784
1.6819143,3.7994251
1.6719041,3.7830563
1.6619537,3.8363125
1.6520622,3.8698382
1.6422291,3.8700001
1.6324553,3.8887188
1.6227394,3.9146895
1.6130813,3.9426332
1.6034806,3.9553623
1.5939372,3.9443965
1.5844505,3.9753513
1.5750202,3.9908485
1.5656462,4.0101023
1.5563277,4.078936
1.5470649,4.092085
1.5378572,4.1043
1.5287046,4.1269712
1.5196058,4.1134267
1.5105615,4.1034193
1.5015709,4.119277
1.4926344,4.206254
1.4837507,4.236336
1.4749194,4.2498775
1.466141,4.281272
1.4574152,4.3138847
1.4487412,4.3146334
1.4401187,4.3101916
1.4315474,4.3481817
1.4230273,4.308852
1.4145577,4.309993
1.4061385,4.272752
1.3977697,4.2764983
1.3894506,4.241437
1.3811809,4.2278996
1.3729603,4.2024035
1.3647891,4.2030725
