energy,intensity
97.76732,0.06472319
92.828835,0.06813516
88.18945,0.07203265
83.8307,0.0761247
79.735245,0.08007115
75.88682,0.08334659
72.27017,0.08647183
68.87099,0.09073971
65.67586,0.095795944
62.672165,0.10152344
59.848106,0.10660545
57.19261,0.112190485
54.69525,0.11787107
52.346306,0.12307702
50.136597,0.12838554
48.057564,0.13445379
46.10113,0.14019124
44.25976,0.14651623
42.52636,0.15231746
40.894283,0.16102627
39.357292,0.16864404
37.909534,0.17646466
36.545517,0.18352824
35.260098,0.19034249
34.04844,0.19476841
32.906017,0.20360613
31.828575,0.21008754
30.812122,0.22003682
29.85292,0.2273989
28.947456,0.23752418
28.092442,0.24640886
27.284779,0.25455517
26.521572,0.26127762
25.800108,0.2693162
25.117828,0.2754166
24.472345,0.28535342
23.861408,0.2971666
23.282911,0.3072966
22.734882,0.31777254
22.215462,0.32938918
21.722916,0.33558667
21.255604,0.34159717
20.812004,0.34922737
20.390675,0.35851035
19.990267,0.36954454
19.609518,0.3803514
19.247244,0.3906818
18.902327,0.40050167
18.573725,0.40805674
18.260456,0.41513675
17.961601,0.4208303
17.676302,0.4279515
17.403744,0.43473712
17.143167,0.44321018
16.893862,0.4525036
16.655159,0.46221757
16.426428,0.47148496
16.207083,0.48010793
15.996571,0.48987842
15.794373,0.49596578
15.6,0.50298387
15.412999,0.511538
15.232939,0.519302
15.05942,0.5284702
14.892062,0.5391911
14.730514,0.55033344
14.574441,0.55901885
14.423531,0.57010734
14.277491,0.58133376
14.136047,0.59033763
13.998942,0.6028675
13.865933,0.6143104
13.73679,0.62516403
13.611302,0.64043057
13.48927,0.6565674
13.3705015,0.6704432
13.254824,0.687807
13.142069,0.698021
13.032082,0.7094883
12.924716,0.71999216
12.819836,0.7313241
12.717309,0.74076277
12.617017,0.7498762
12.518845,0.7509969
12.422684,0.7509607
12.328438,0.74998206
12.23601,0.7465017
12.145311,0.73903316
12.056257,0.7362949
11.968773,0.74301255
11.882783,0.74679935
11.798219,0.75584733
11.7150135,0.7581144
11.633108,0.7587047
11.552444,0.75821537
11.472969,0.76106083
11.394629,0.7558346
11.317378,0.7566277
11.241171,0.764472
11.165965,0.7668877
11.091721,0.7665178
11.018401,0.77689445
10.945969,0.7805749
10.874393,0.7830396
10.803641,0.78884023
10.733684,0.8012931
10.664492,0.8019949
10.596042,0.8070385
10.528306,0.8217555
10.461264,0.83341235
10.394891,0.82894707
10.329167,0.83056325
10.264075,0.8332818
10.199594,0.8391198
10.135705,0.84455234
10.072394,0.8462536
10.0096445,0.84691256
9.947442,0.84738714
9.885775,0.8425292
9.824624,0.84673786
9.763982,0.85303867
9.703834,0.8580266
9.64417,0.8690612
9.584979,0.8748829
9.526253,0.8721906
9.467979,0.86926967
9.410151,0.87677383
9.3527565,0.8765601
9.295791,0.88068104
9.239244,0.8868576
9.183109,0.8903796
9.12738,0.8961345
9.07205,0.9027214
9.01711,0.9017746
8.962557,0.9023987
8.908382,0.91098624
8.854581,0.9143877
8.801149,0.925058
8.74808,0.93648446
8.69537,0.93781555
8.643014,0.94585055
8.591007,0.9510689
8.539344,0.9457604
8.48802,0.9538763
8.437034,0.9570569
8.38638,0.95503914
8.336055,0.9574922
8.286055,0.9620422
8.236377,0.95514023
8.187016,0.957526
8.13797,0.9649042
8.089236,0.97053754
8.04081,0.9760213
7.9926906,0.98353374
7.9448724,0.98890465
7.8973556,0.990806
7.850135,0.9915822
7.80321,0.99922144
7.7565756,1.0110375
7.710231,1.0144756
7.664174,1.0179172
7.6184006,1.039676
7.57291,1.050719
7.5276995,1.0502722
7.482766,1.0556078
7.4381084,1.0633135
7.3937244,1.0596716
7.349611,1.0638568
7.3057675,1.0634776
7.2621903,1.0720605
7.218879,1.0873507
7.175831,1.0867853
7.133044,1.0916746
7.090517,1.1137993
7.0482473,1.1264589
7.0062337,1.1230495
6.9644732,1.1389654
6.9229665,1.1269007
6.881709,1.1192957
6.840701,1.1177199
6.79994,1.1265572
6.7594247,1.1290094
6.719154,1.1420487
6.679125,1.1471525
6.6393356,1.1553407
6.599786,1.1580801
6.560474,1.1579306
6.5213976,1.161526
6.482556,1.1657952
6.443947,1.1741335
6.4055705,1.176857
6.367422,1.1800276
6.3295035,1.1866376
6.291812,1.1845068
6.254346,1.1874197
6.217103,1.2013118
6.1800838,1.2092135
6.1432858,1.2103056
6.106708,1.2130333
6.0703483,1.2224538
6.034206,1.2177333
5.9982805,1.236899
5.9625683,1.2416261
5.92707,1.2507789
5.891784,1.2456896
5.856708,1.2556314
5.8218417,1.2521675
5.787183,1.2548951
5.752732,1.2608944
5.718485,1.2661582
5.684444,1.2678602
5.650605,1.2685084
5.616968,1.2768811
5.583532,1.3050903
5.550295,1.3092396
5.5172563,1.329724
5.4844136,1.3461665
5.4517684,1.3478293
5.419316,1.3328376
5.387058,1.3351532
5.3549924,1.329578
5.3231173,1.3350823
5.2914324,1.3590071
5.2599363,1.3652105
5.228627,1.3797784
5.1975055,1.3986661
5.166569,1.391007
5.135817,1.3696231
5.105248,1.3783935
5.0748606,1.3812059
5.044654,1.3871716
5.0146275,1.3931592
4.9847803,1.404125
4.955111,1.4057863
4.9256177,1.4094828
4.8963003,1.4024875
4.867158,1.4070032
4.8381886,1.405515
4.809392,1.4178591
4.7807665,1.4236128
4.7523127,1.4358064
4.724026,1.4447114
4.695909,1.4490287
4.667959,1.4496101
4.640177,1.4582894
4.612559,1.4717472
4.585105,1.4907025
4.557816,1.5037731
4.530688,1.5188717
4.5037217,1.5289342
4.4769163,1.5241296
4.450271,1.5159466
4.423784,1.5319226
4.3974533,1.5414256
4.3712807,1.54733
4.345264,1.569973
4.3194017,1.5824014
4.293693,1.5830758
4.2681384,1.5860844
4.2427354,1.6034594
4.217483,1.5937626
4.192381,1.5894389
4.16743,1.6020939
4.142626,1.632736
4.11797,1.6333357
4.09346,1.6434705
4.069097,1.6765261
4.0448785,1.6775815
4.0208044,1.6879876
3.9968739,1.6944578
3.9730854,1.7327693
3.949438,1.7339449
3.925932,1.7384036
3.9025662,1.7395016
3.8793387,1.7581589
3.85625,1.7438118
3.8332987,1.755769
3.8104842,1.7681887
3.7878044,1.7760899
3.7652605,1.7774603
3.742851,1.790432
3.7205741,1.801543
3.6984303,1.8170449
3.6764178,1.829901
3.6545374,1.8515943
3.632786,1.8514789
3.6111646,1.8637718
3.5896719,1.9012474
3.5683074,1.9097795
3.5470698,1.9191656
3.525958,1.9294201
3.5049734,1.9447035
3.484112,1.9229769
3.4633756,1.932812
3.4427624,1.9557823
3.4222722,1.9636701
3.4019039,1.9617567
3.3816562,1.9700644
3.3615294,1.9710515
3.3415227,1.9654553
3.321635,1.9724104
3.3018653,1.989942
3.2822137,2.0124834
3.2626784,2.0178516
3.24326,2.0259004
3.2239568,2.050652
3.2047691,2.055674
3.1856952,2.067982
3.1667347,2.0762334
3.1478868,2.096052
3.1291518,2.1086018
3.1105278,2.1427188
3.0920146,2.1400375
3.0736122,2.1580517
3.0553188,2.2018914
3.037134,2.1968915
3.0190578,2.2095637
3.0010896,2.2218244
2.9832275,2.2575374
2.9654722,2.2387083
2.9478228,2.2644377
2.930278,2.254685
2.9128375,2.2711782
2.895501,2.2887924
2.878268,2.3070407
2.8611374,2.2934237
2.8441086,2.3122652
2.8271809,2.3312504
2.8103547,2.3312454
2.7936282,2.3644524
2.7770011,2.3817494
2.7604735,2.3860064
2.7440438,2.3976443
2.7277122,2.4056058
2.711477,2.393746
2.6953394,2.4075384
2.6792972,2.4197838
2.663351,2.4702866
2.6474993,2.4944093
2.631742,2.4971955
2.6160786,2.5054808
2.6005085,2.502598
2.5850313,2.5068998
2.5696461,2.499286
2.5543516,2.5239234
2.5391486,2.523581
2.524037,2.5479026
2.5090146,2.5538898
2.4940815,2.570929
2.4792366,2.5892541
2.4644816,2.5965002
2.4498136,2.620352
2.4352329,2.6199276
2.420739,2.6182036
2.4063315,2.6338797
2.3920097,2.6624084
2.377773,2.6587906
2.363621,2.6747098
2.3495533,2.6851573
2.3355696,2.7211463
2.3216686,2.7330577
2.3078513,2.762645
2.294115,2.81783
2.280461,2.8315153
2.2668889,2.8183358
2.253397,2.8390796
2.2399855,2.8502388
2.2266536,2.82031
2.213401,2.8437624
2.2002275,2.8495598
2.1871324,2.867286
2.174115,2.8657365
2.1611753,2.8553233
2.1483126,2.8703895
2.1355262,2.8692012
2.1228166,2.8678944
2.1101818,2.8926418
2.0976226,2.8974898
2.0851378,2.9127479
2.0727284,2.9799695
2.060392,3.0126243
2.0481286,3.0682712
2.0359385,3.095922
2.0238216,3.1144578
2.0117764,3.0984294
1.9998028,3.0937252
1.9879006,3.0654588
1.9760691,3.066897
1.9643079,3.0963578
1.9526169,3.0948005
1.9409955,3.130552
1.9294431,3.137244
1.9179596,3.1636052
1.9065444,3.1764483
1.8951972,3.2315094
1.8839173,3.2238574
1.8727047,3.2447116
1.8615594,3.2586734
1.8504798,3.2585495
1.8394659,3.3136144
1.8285179,3.3549142
1.8176354,3.386195
1.8068173,3.3976216
1.7960637,3.4470944
1.7853739,3.42052
1.7747478,3.4647484
1.7641851,3.4912593
1.753685,3.5138202
1.7432475,3.5757096
1.7328722,3.5744739
1.7225585,3.5840645
1.7123064,3.5741196
1.7021154,3.5801492
1.6919845,3.5698044
1.6819143,3.5868573
1.6719041,3.5700855
1.6619537,3.6430538
1.6520622,3.671904
1.6422291,3.6868107
1.6324553,3.7079933
1.6227394,3.7310905
1.6130813,3.7498257
1.6034806,3.7650266
1.5939372,3.75748
1.5844505,3.7753913
1.5750202,3.7878456
1.5656462,3.814238
1.5563277,3.8641567
1.5470649,3.9013839
1.5378572,3.9370282
1.5287046,3.9567962
1.5196058,3.9441457
1.5105615,3.9388976
1.5015709,3.9528031
1.4926344,4.031968
1.4837507,4.0659037
1.4749194,4.0863075
1.466141,4.1137476
1.4574152,4.1483493
1.4487412,4.1240315
1.4401187,4.1103754
1.4315474,4.149198
1.4230273,4.1117415
1.4145577,4.1291685
1.4061385,4.116683
1.3977697,4.1070194
1.3894506,4.088724
1.3811809,4.09216
1.3729603,4.0690274
1.3647891,4.0603786
