energy,intensity
97.76732,0.010777289
92.828835,0.011280188
88.18945,0.012046641
83.8307,0.012811695
79.735245,0.013569993
75.88682,0.014315618
72.27017,0.015182843
68.87099,0.01597441
65.67586,0.016795821
62.672165,0.017647173
59.848106,0.018807726
57.19261,0.02020191
54.69525,0.02156275
52.346306,0.02259975
50.136597,0.023740742
48.057564,0.025160939
46.10113,0.025929227
44.25976,0.027467694
42.52636,0.028689817
40.894283,0.03015467
39.357292,0.03147998
37.909534,0.03323808
36.545517,0.034498535
35.260098,0.035982884
34.04844,0.03809573
32.906017,0.03968332
31.828575,0.04148327
30.812122,0.04339418
29.85292,0.045348328
28.947456,0.047344178
28.092442,0.049819805
27.284779,0.05148096
26.521572,0.053702194
25.800108,0.055429228
25.117828,0.057079513
24.472345,0.058347493
23.861408,0.06051138
23.282911,0.062763914
22.734882,0.064596474
22.215462,0.06712083
21.722916,0.06971317
21.255604,0.07179283
20.812004,0.07307867
20.390675,0.075158864
19.990267,0.07688242
19.609518,0.07856049
19.247244,0.08090751
18.902327,0.08330651
18.573725,0.08548457
18.260456,0.08806534
17.961601,0.08957108
17.676302,0.092044525
17.403744,0.09411232
17.143167,0.096305825
16.893862,0.09880235
16.655159,0.10074197
16.426428,0.102941036
16.207083,0.105096444
15.996571,0.1071609
15.794373,0.109222874
15.6,0.11077009
15.412999,0.112444066
15.232939,0.11572905
15.05942,0.11812408
14.892062,0.12013471
14.730514,0.1230308
14.574441,0.12564462
14.423531,0.12705998
14.277491,0.12902127
14.136047,0.13113473
13.998942,0.1333015
13.865933,0.13568074
13.73679,0.13822588
13.611302,0.14040782
13.48927,0.14297092
13.3705015,0.14587139
13.254824,0.14829573
13.142069,0.15050802
13.032082,0.15317228
12.924716,0.15461335
12.819836,0.1570119
12.717309,0.15942052
12.617017,0.16149408
12.518845,0.16368924
12.422684,0.16583374
12.328438,0.16774982
12.23601,0.17067985
12.145311,0.17243308
12.056257,0.17539443
11.968773,0.17673716
11.882783,0.17856649
11.798219,0.18027754
11.7150135,0.18267445
11.633108,0.18502252
11.552444,0.18706924
11.472969,0.18874513
11.394629,0.19131824
11.317378,0.19377989
11.241171,0.19548146
11.165965,0.19744885
11.091721,0.19942565
11.018401,0.20121436
10.945969,0.20347524
10.874393,0.20648508
10.803641,0.20931712
10.733684,0.21162915
10.664492,0.21347919
10.596042,0.21526971
10.528306,0.21644764
10.461264,0.21873777
10.394891,0.22048397
10.329167,0.22308287
10.264075,0.22470999
10.199594,0.22705679
10.135705,0.22884643
10.072394,0.23100634
10.0096445,0.23339824
9.947442,0.23551516
9.885775,0.23735185
9.824624,0.23986466
9.763982,0.2416521
9.703834,0.24359927
9.64417,0.2454077
9.584979,0.24737807
9.526253,0.2479877
9.467979,0.24882326
9.410151,0.24958014
9.3527565,0.25111172
9.295791,0.25100896
9.239244,0.25136548
9.183109,0.2525855
9.12738,0.2535704
9.07205,0.25351495
9.01711,0.25473723
8.962557,0.25588238
8.908382,0.25792786
8.854581,0.25998747
8.801149,0.2678408
8.74808,0.27037936
8.69537,0.2719348
8.643014,0.27248907
8.591007,0.27346197
8.539344,0.27554187
8.48802,0.2765231
8.437034,0.27741903
8.38638,0.27944118
8.336055,0.2818256
8.286055,0.2845786
8.236377,0.28673613
8.187016,0.28908625
8.13797,0.2902927
8.089236,0.29168227
8.04081,0.29352933
7.9926906,0.29402366
7.9448724,0.29542747
7.8973556,0.29720503
7.850135,0.29852992
7.80321,0.3000458
7.7565756,0.30288026
7.710231,0.3050778
7.664174,0.30785924
7.6184006,0.30904123
7.57291,0.3109936
7.5276995,0.31141344
7.482766,0.31260365
7.4381084,0.31379664
7.3937244,0.31774426
7.349611,0.31876156
7.3057675,0.32166916
7.2621903,0.32319912
7.218879,0.32695013
7.175831,0.32769635
7.133044,0.3292545
7.090517,0.32907715
7.0482473,0.330329
7.0062337,0.33241352
6.9644732,0.3353458
6.9229665,0.33735636
6.881709,0.3396957
6.840701,0.34130716
6.79994,0.34249812
6.7594247,0.34390604
6.719154,0.34683242
6.679125,0.34836704
6.6393356,0.35056424
6.599786,0.35046294
6.560474,0.35300606
6.5213976,0.35344988
6.482556,0.35635227
6.443947,0.35600644
6.4055705,0.35813934
6.367422,0.35937202
6.3295035,0.3589992
6.291812,0.36011034
6.254346,0.3620352
6.217103,0.36303508
6.1800838,0.36509213
6.1432858,0.367279
6.106708,0.36840802
6.0703483,0.369657
6.034206,0.37343663
5.9982805,0.37700588
5.9625683,0.37938577
5.92707,0.38263878
5.891784,0.38419038
5.856708,0.38686353
5.8218417,0.3914271
5.787183,0.3931435
5.752732,0.39537165
5.718485,0.39761236
5.684444,0.39897072
5.650605,0.4016172
5.616968,0.40453973
5.583532,0.40800348
5.550295,0.41057763
5.5172563,0.41343135
5.4844136,0.4136547
5.4517684,0.41559854
5.419316,0.41714865
5.387058,0.4197814
5.3549924,0.42283782
5.3231173,0.4263254
5.2914324,0.42983952
5.2599363,0.43186083
5.228627,0.43416888
5.1975055,0.4356501
5.166569,0.43769613
5.135817,0.439468
5.105248,0.44195706
5.0748606,0.44703755
5.044654,0.45331565
5.0146275,0.45530534
4.9847803,0.45774013
4.955111,0.45857438
4.9256177,0.4610251
4.8963003,0.4599269
4.867158,0.4635765
4.8381886,0.46605188
4.809392,0.46808696
4.7807665,0.46830568
4.7523127,0.472027
4.724026,0.47239232
4.695909,0.47444707
4.667959,0.47604245
4.640177,0.47983232
4.612559,0.48207527
4.585105,0.4851202
4.557816,0.48834363
4.530688,0.49222994
4.5037217,0.49275693
4.4769163,0.4934349
4.450271,0.49622598
4.423784,0.49755448
4.3974533,0.49937695
4.3712807,0.5008708
4.345264,0.5021974
4.3194017,0.50453126
4.293693,0.50298274
4.2681384,0.505143
4.2427354,0.5091951
4.217483,0.5113824
4.192381,0.5146176
4.16743,0.5171756
4.142626,0.5181674
4.11797,0.5191523
4.09346,0.5229708
4.069097,0.5250305
4.0448785,0.52709615
4.0208044,0.5315172
3.9968739,0.53488135
3.9730854,0.53918135
3.949438,0.54204166
3.925932,0.54436165
3.9025662,0.5468761
3.8793387,0.54958856
3.85625,0.54929876
3.8332987,0.5523981
3.8104842,0.55646825
3.7878044,0.56114304
3.7652605,0.5654678
3.742851,0.5707949
3.7205741,0.5703063
3.6984303,0.57313144
3.6764178,0.5781444
3.6545374,0.5782255
3.632786,0.5822878
3.6111646,0.5841643
3.5896719,0.58563757
3.5683074,0.58568203
3.5470698,0.58857405
3.525958,0.59168607
3.5049734,0.59688705
3.484112,0.59920955
3.4633756,0.6030071
3.4427624,0.6066175
3.4222722,0.60833853
3.4019039,0.61326253
3.3816562,0.6171493
3.3615294,0.61997974
3.3415227,0.62260437
3.321635,0.6267697
3.3018653,0.6327232
3.2822137,0.63606876
3.2626784,0.6398772
3.24326,0.642364
3.2239568,0.64305454
3.2047691,0.6473581
3.1856952,0.6484969
3.1667347,0.6510029
3.1478868,0.65559334
3.1291518,0.65487397
3.1105278,0.6571597
3.0920146,0.66908485
3.0736122,0.6730908
3.0553188,0.67664516
3.037134,0.68332845
3.0190578,0.68308735
3.0010896,0.6808816
2.9832275,0.68300974
2.9654722,0.6848938
2.9478228,0.6848038
2.930278,0.69187975
2.9128375,0.6920309
2.895501,0.6974292
2.878268,0.700595
2.8611374,0.7030119
2.8441086,0.7074765
2.8271809,0.70965636
2.8103547,0.7113195
2.7936282,0.7142778
2.7770011,0.7180313
2.7604735,0.72075075
2.7440438,0.7221533
2.7277122,0.72541136
2.711477,0.7310948
2.6953394,0.738168
2.6792972,0.74068934
2.663351,0.74594253
2.6474993,0.7504088
2.631742,0.75158846
2.6160786,0.7558107
2.6005085,0.75362957
2.5850313,0.756174
2.5696461,0.75674236
2.5543516,0.7624114
2.5391486,0.766404
2.524037,0.769553
2.5090146,0.7727124
2.4940815,0.77355134
2.4792366,0.7755452
2.4644816,0.78018844
2.4498136,0.7842665
2.4352329,0.7934382
2.420739,0.80089045
2.4063315,0.80900747
2.3920097,0.8159777
2.377773,0.81811297
2.363621,0.8159402
2.3495533,0.8183514
2.3355696,0.8148505
2.3216686,0.81910354
2.3078513,0.82652646
2.294115,0.82957476
2.280461,0.836135
2.2668889,0.84594953
2.253397,0.84488755
2.2399855,0.8441068
2.2266536,0.84850806
2.213401,0.84964865
2.2002275,0.85671747
2.1871324,0.86251146
2.174115,0.8703495
2.1611753,0.8725346
2.1483126,0.8743762
2.1355262,0.87178516
2.1228166,0.87426615
2.1101818,0.87709045
2.0976226,0.8819955
2.0851378,0.8862308
2.0727284,0.8918873
2.060392,0.89828557
2.0481286,0.89621335
2.0359385,0.89908093
2.0238216,0.9015914
2.0117764,0.9145748
1.9998028,0.9258647
1.9879006,0.9310428
1.9760691,0.94139755
1.9643079,0.9466642
1.9526169,0.9404235
1.9409955,0.93669474
1.9294431,0.945316
1.9179596,0.9487027
1.9065444,0.94942796
1.8951972,0.96278125
1.8839173,0.9650742
1.8727047,0.96309173
1.8615594,0.96690625
1.8504798,0.9754442
1.8394659,0.97219896
1.8285179,0.975238
1.8176354,0.9834758
1.8068173,0.9929838
1.7960637,0.9956924
1.7853739,1.0032821
1.7747478,1.0182967
1.7641851,1.0235698
1.753685,1.0243118
1.7432475,1.0287774
1.7328722,1.0416464
1.7225585,1.0415554
1.7123064,1.0443965
1.7021154,1.0438188
1.6919845,1.0569404
1.6819143,1.0503072
1.6719041,1.0548571
1.6619537,1.0585493
1.6520622,1.0626881
1.6422291,1.0619713
1.6324553,1.0674393
1.6227394,1.0733826
1.6130813,1.0726016
1.6034806,1.0785705
1.5939372,1.0914108
1.5844505,1.0901487
1.5750202,1.0989828
1.5656462,1.1176302
1.5563277,1.1252558
1.5470649,1.1263566
1.5378572,1.1312106
1.5287046,1.1322792
1.5196058,1.1237563
1.5105615,1.1338521
1.5015709,1.1459644
1.4926344,1.1518518
1.4837507,1.1509122
1.4749194,1.1578034
1.466141,1.1573013
1.4574152,1.155754
1.4487412,1.1596644
1.4401187,1.1691306
1.4315474,1.1705469
1.4230273,1.1755128
1.4145577,1.1820374
1.4061385,1.1896315
1.3977697,1.1957146
1.3894506,1.2018278
1.3811809,1.2079712
1.3729603,1.2183796
1.3647891,1.2214146
