energy,intensity
97.76732,0.009469151
92.828835,0.0100042205
88.18945,0.010522272
83.8307,0.011268743
79.735245,0.011829315
75.88682,0.012486665
72.27017,0.0132321995
68.87099,0.014033002
65.67586,0.014737835
62.672165,0.01542099
59.848106,0.01648863
57.19261,0.017406676
54.69525,0.018267887
52.346306,0.019268092
50.136597,0.02008832
48.057564,0.02160756
46.10113,0.02247725
44.25976,0.023724336
42.52636,0.024486307
40.894283,0.025801163
39.357292,0.026937997
37.909534,0.02804343
36.545517,0.029229302
35.260098,0.0308307
34.04844,0.03233335
32.906017,0.03372089
31.828575,0.035296164
30.812122,0.036814295
29.85292,0.03897084
28.947456,0.040465962
28.092442,0.041956246
27.284779,0.043091677
26.521572,0.045263283
25.800108,0.04616286
25.117828,0.04770609
24.472345,0.048667453
23.861408,0.050644398
23.282911,0.05280783
22.734882,0.054528255
22.215462,0.056948025
21.722916,0.060246367
21.255604,0.06163928
20.812004,0.0629531
20.390675,0.06493099
19.990267,0.066049814
19.609518,0.06703581
19.247244,0.06916592
18.902327,0.07142754
18.573725,0.07394317
18.260456,0.07628615
17.961601,0.07840503
17.676302,0.08036938
17.403744,0.08158629
17.143167,0.08240251
16.893862,0.0847369
16.655159,0.08669306
16.426428,0.088917695
16.207083,0.090614304
15.996571,0.0920339
15.794373,0.094270274
15.6,0.0958641
15.412999,0.09636714
15.232939,0.098698854
15.05942,0.101814464
14.892062,0.10383697
14.730514,0.10591302
14.574441,0.10824384
14.423531,0.10977942
14.277491,0.11125858
14.136047,0.11324571
13.998942,0.11461438
13.865933,0.116290286
13.73679,0.11912924
13.611302,0.12102834
13.48927,0.123254515
13.3705015,0.12652332
13.254824,0.12823056
13.142069,0.12993896
13.032082,0.13159321
12.924716,0.13307992
12.819836,0.13535897
12.717309,0.13782161
12.617017,0.13955069
12.518845,0.14099333
12.422684,0.1436056
12.328438,0.14482129
12.23601,0.14668727
12.145311,0.14885963
12.056257,0.15080303
11.968773,0.15245172
11.882783,0.1550226
11.798219,0.1563801
11.7150135,0.15829715
11.633108,0.16053607
11.552444,0.1625376
11.472969,0.16461359
11.394629,0.16759476
11.317378,0.16995868
11.241171,0.1718866
11.165965,0.17415065
11.091721,0.17616805
11.018401,0.17767008
10.945969,0.17977516
10.874393,0.18229493
10.803641,0.1849685
10.733684,0.18732496
10.664492,0.18976682
10.596042,0.1914042
10.528306,0.19249758
10.461264,0.19588456
10.394891,0.19811401
10.329167,0.19972636
10.264075,0.20191333
10.199594,0.20475721
10.135705,0.20597617
10.072394,0.20698225
10.0096445,0.2109659
9.947442,0.21272337
9.885775,0.21478541
9.824624,0.21678796
9.763982,0.21835765
9.703834,0.21993577
9.64417,0.22099502
9.584979,0.22402763
9.526253,0.22418818
9.467979,0.22572151
9.410151,0.22687697
9.3527565,0.22935697
9.295791,0.22857371
9.239244,0.23005131
9.183109,0.23304018
9.12738,0.23318925
9.07205,0.23381045
9.01711,0.23491268
8.962557,0.23707223
8.908382,0.23835082
8.854581,0.2411942
8.801149,0.24736464
8.74808,0.24936366
8.69537,0.2508753
8.643014,0.25147018
8.591007,0.25256953
8.539344,0.25452307
8.48802,0.25614768
8.437034,0.25683436
8.38638,0.2572592
8.336055,0.25889948
8.286055,0.26090017
8.236377,0.2634443
8.187016,0.2650327
8.13797,0.26662996
8.089236,0.26868546
8.04081,0.27021328
7.9926906,0.271931
7.9448724,0.27311033
7.8973556,0.2747536
7.850135,0.2756658
7.80321,0.27713725
7.7565756,0.27945924
7.710231,0.28189301
7.664174,0.28387144
7.6184006,0.28481397
7.57291,0.28450978
7.5276995,0.28428784
7.482766,0.28667474
7.4381084,0.28644204
7.3937244,0.28993058
7.349611,0.29127532
7.3057675,0.29302335
7.2621903,0.29518187
7.218879,0.29675156
7.175831,0.29670897
7.133044,0.29899812
7.090517,0.29874176
7.0482473,0.30197674
7.0062337,0.3046173
6.9644732,0.3063395
6.9229665,0.30954072
6.881709,0.31224126
6.840701,0.31177607
6.79994,0.31257635
6.7594247,0.31444985
6.719154,0.31579375
6.679125,0.31746876
6.6393356,0.32013747
6.599786,0.3205145
6.560474,0.32232434
6.5213976,0.3229185
6.482556,0.32518965
6.443947,0.32578477
6.4055705,0.32739627
6.367422,0.32798833
6.3295035,0.32662386
6.291812,0.32927352
6.254346,0.33112976
6.217103,0.33323026
6.1800838,0.33534393
6.1432858,0.33711606
6.106708,0.33818334
6.0703483,0.3388922
6.034206,0.34092203
5.9982805,0.3432062
5.9625683,0.3463586
5.92707,0.34880084
5.891784,0.35249317
5.856708,0.3538598
5.8218417,0.35747686
5.787183,0.36024556
5.752732,0.36215028
5.718485,0.36381087
5.684444,0.36573383
5.650605,0.36638084
5.616968,0.36922175
5.583532,0.373385
5.550295,0.37391886
5.5172563,0.37721166
5.4844136,0.38013303
5.4517684,0.38174284
5.419316,0.3818834
5.387058,0.38349572
5.3549924,0.38565633
5.3231173,0.38810223
5.2914324,0.38877818
5.2599363,0.39317837
5.228627,0.3951158
5.1975055,0.3973419
5.166569,0.40014306
5.135817,0.40211454
5.105248,0.40537637
5.0748606,0.40751728
5.044654,0.41154203
5.0146275,0.41400617
4.9847803,0.41604787
4.955111,0.4160458
4.9256177,0.41809446
4.8963003,0.41941056
4.867158,0.42207113
4.8381886,0.42489868
4.809392,0.42578083
4.7807665,0.42681026
4.7523127,0.42936572
4.724026,0.43039846
4.695909,0.42941636
4.667959,0.43198752
4.640177,0.4378627
4.612559,0.4396967
4.585105,0.4428048
4.557816,0.4478476
4.530688,0.4510103
4.5037217,0.45080653
4.4769163,0.45074636
4.450271,0.45230207
4.423784,0.45501018
4.3974533,0.45442978
4.3712807,0.45881295
4.345264,0.46022218
4.3194017,0.46247306
4.293693,0.46033415
4.2681384,0.46377134
4.2427354,0.46740445
4.217483,0.4684802
4.192381,0.47111177
4.16743,0.47515303
4.142626,0.47606844
4.11797,0.47662482
4.09346,0.48125386
4.069097,0.4835995
4.0448785,0.48559684
4.0208044,0.48868495
3.9968739,0.4914291
3.9730854,0.4912622
3.949438,0.4940197
3.925932,0.49586707
3.9025662,0.4995807
3.8793387,0.50201
3.85625,0.50407344
3.8332987,0.50803936
3.8104842,0.5133697
3.7878044,0.5139495
3.7652605,0.51876366
3.742851,0.5214812
3.7205741,0.5238224
3.6984303,0.5265658
3.6764178,0.5295209
3.6545374,0.5309017
3.632786,0.5350806
3.6111646,0.5384856
3.5896719,0.53664887
3.5683074,0.53904736
3.5470698,0.538997
3.525958,0.5420182
3.5049734,0.544434
3.484112,0.548111
3.4633756,0.55034363
3.4427624,0.5553273
3.4222722,0.55695355
3.4019039,0.559861
3.3816562,0.56407267
3.3615294,0.56809866
3.3415227,0.57128257
3.321635,0.5773282
3.3018653,0.5814451
3.2822137,0.584705
3.2626784,0.58753777
3.24326,0.5910555
3.2239568,0.5889596
3.2047691,0.592259
3.1856952,0.5928397
3.1667347,0.59570086
3.1478868,0.6013453
3.1291518,0.6037845
3.1105278,0.60739964
3.0920146,0.6150316
3.0736122,0.61965954
3.0553188,0.6205157
3.037134,0.62494886
3.0190578,0.6229141
3.0010896,0.62398005
2.9832275,0.6264982
2.9654722,0.62951416
2.9478228,0.6313112
2.930278,0.6350911
2.9128375,0.6356506
2.895501,0.6392056
2.878268,0.6407604
2.8611374,0.6433269
2.8441086,0.6466678
2.8271809,0.65028274
2.8103547,0.6534004
2.7936282,0.6575726
2.7770011,0.6609864
2.7604735,0.66573364
2.7440438,0.66548264
2.7277122,0.6654711
2.711477,0.6742796
2.6953394,0.6796647
2.6792972,0.67939466
2.663351,0.67964256
2.6474993,0.687829
2.631742,0.6825594
2.6160786,0.6908127
2.6005085,0.69159555
2.5850313,0.69376856
2.5696461,0.69283223
2.5543516,0.7009633
2.5391486,0.70144
2.524037,0.7056395
2.5090146,0.70725775
2.4940815,0.7144061
2.4792366,0.7116491
2.4644816,0.7117819
2.4498136,0.7139673
2.4352329,0.72659725
2.420739,0.7273455
2.4063315,0.73955184
2.3920097,0.7485367
2.377773,0.7481287
2.363621,0.74123275
2.3495533,0.7450522
2.3355696,0.7467129
2.3216686,0.74930596
2.3078513,0.7582003
2.294115,0.7630569
2.280461,0.7660322
2.2668889,0.77029806
2.253397,0.7723303
2.2399855,0.7756569
2.2266536,0.77932197
2.213401,0.7810334
2.2002275,0.7880217
2.1871324,0.7914108
2.174115,0.7938098
2.1611753,0.79553634
2.1483126,0.79522586
2.1355262,0.7952235
2.1228166,0.7986153
2.1101818,0.8009863
2.0976226,0.80543566
2.0851378,0.8095614
2.0727284,0.81265515
2.060392,0.81787366
2.0481286,0.81922275
2.0359385,0.8187739
2.0238216,0.8218808
2.0117764,0.83113635
1.9998028,0.840473
1.9879006,0.84696734
1.9760691,0.85277385
1.9643079,0.85307074
1.9526169,0.85147953
1.9409955,0.85096216
1.9294431,0.85643375
1.9179596,0.8619404
1.9065444,0.8671011
1.8951972,0.878811
1.8839173,0.8848442
1.8727047,0.8850977
1.8615594,0.8845417
1.8504798,0.8918012
1.8394659,0.8920053
1.8285179,0.8961539
1.8176354,0.9051175
1.8068173,0.91536283
1.7960637,0.91922504
1.7853739,0.92757785
1.7747478,0.93436015
1.7641851,0.9383068
1.753685,0.9410244
1.7432475,0.94374067
1.7328722,0.9565198
1.7225585,0.9554974
1.7123064,0.95060873
1.7021154,0.95587337
1.6919845,0.9654621
1.6819143,0.9582812
1.6719041,0.9653227
1.6619537,0.9680416
1.6520622,0.97075874
1.6422291,0.97391605
1.6324553,0.9779666
1.6227394,0.9815831
1.6130813,0.9892621
1.6034806,0.9924661
1.5939372,0.9997762
1.5844505,1.0053034
1.5750202,1.008093
1.5656462,1.021555
1.5563277,1.0281384
1.5470649,1.0352335
1.5378572,1.0400144
1.5287046,1.0410122
1.5196058,1.036247
1.5105615,1.0376407
1.5015709,1.047241
1.4926344,1.0544846
1.4837507,1.0598189
1.4749194,1.0651791
1.466141,1.0690787
1.4574152,1.0605215
1.4487412,1.0663693
1.4401187,1.0727541
1.4315474,1.0751164
1.4230273,1.0805323
1.4145577,1.0900841
1.4061385,1.0960941
1.3977697,1.0953784
1.3894506,1.0998448
1.3811809,1.1080084
1.3729603,1.1088207
1.3647891,1.1245106
