energy,intensity
97.76732,0.011067161
92.828835,0.011710729
88.18945,0.012417435
83.8307,0.013227771
79.735245,0.014071235
75.88682,0.014832703
72.27017,0.015836408
68.87099,0.016786847
65.67586,0.017769493
62.672165,0.018644324
59.848106,0.019730505
57.19261,0.021129422
54.69525,0.022612322
52.346306,0.024043467
50.136597,0.025494482
48.057564,0.027308082
46.10113,0.028372403
44.25976,0.029979676
42.52636,0.03137254
40.894283,0.03322877
39.357292,0.034711055
37.909534,0.03643921
36.545517,0.03817705
35.260098,0.039980985
34.04844,0.04200134
32.906017,0.04381286
31.828575,0.04609506
30.812122,0.04827603
29.85292,0.050776493
28.947456,0.053218264
28.092442,0.055665754
27.284779,0.057792913
26.521572,0.06036017
25.800108,0.062639534
25.117828,0.06506428
24.472345,0.06678042
23.861408,0.06940384
23.282911,0.07231428
22.734882,0.07524004
22.215462,0.078307636
21.722916,0.08165541
21.255604,0.084442064
20.812004,0.08662598
20.390675,0.089413755
19.990267,0.09185904
19.609518,0.09360557
19.247244,0.09653781
18.902327,0.09918357
18.573725,0.10269885
18.260456,0.10541578
17.961601,0.107817054
17.676302,0.11095496
17.403744,0.11302664
17.143167,0.11470225
16.893862,0.117298245
16.655159,0.119590186
16.426428,0.12187475
16.207083,0.12468994
15.996571,0.1269668
15.794373,0.12896028
15.6,0.131359
15.412999,0.1331413
15.232939,0.13557377
15.05942,0.13853523
14.892062,0.14111678
14.730514,0.14345372
14.574441,0.1458375
14.423531,0.1480687
14.277491,0.14948146
14.136047,0.15159401
13.998942,0.15385735
13.865933,0.15627655
13.73679,0.15853924
13.611302,0.1605881
13.48927,0.1630644
13.3705015,0.16603468
13.254824,0.16852532
13.142069,0.17069003
13.032082,0.17341308
12.924716,0.17507851
12.819836,0.17622744
12.717309,0.17856242
12.617017,0.17969385
12.518845,0.18121907
12.422684,0.18461068
12.328438,0.18690608
12.23601,0.18897119
12.145311,0.19074138
12.056257,0.1930544
11.968773,0.19458693
11.882783,0.19660659
11.798219,0.19857009
11.7150135,0.20103493
11.633108,0.2032624
11.552444,0.20531067
11.472969,0.20698626
11.394629,0.20911081
11.317378,0.21028134
11.241171,0.2121594
11.165965,0.21443439
11.091721,0.21573873
11.018401,0.21770188
10.945969,0.21980636
10.874393,0.22212183
10.803641,0.22371098
10.733684,0.22584608
10.664492,0.22717507
10.596042,0.2289855
10.528306,0.23101088
10.461264,0.23325546
10.394891,0.23509435
10.329167,0.23630884
10.264075,0.2378782
10.199594,0.23931086
10.135705,0.24031746
10.072394,0.24161153
10.0096445,0.242981
9.947442,0.2443543
9.885775,0.24617262
9.824624,0.2485924
9.763982,0.24931772
9.703834,0.2498147
9.64417,0.25173688
9.584979,0.25245753
9.526253,0.25142032
9.467979,0.25250724
9.410151,0.2534412
9.3527565,0.25445265
9.295791,0.2543704
9.239244,0.25529796
9.183109,0.25654206
9.12738,0.25699383
9.07205,0.25695923
9.01711,0.25860542
8.962557,0.25928766
8.908382,0.26078287
8.854581,0.26285982
8.801149,0.2713911
8.74808,0.2741173
8.69537,0.27594608
8.643014,0.27677694
8.591007,0.27845243
8.539344,0.27911595
8.48802,0.28037557
8.437034,0.28146708
8.38638,0.2829938
8.336055,0.28531247
8.286055,0.28747258
8.236377,0.28991228
8.187016,0.29272535
8.13797,0.29395375
8.089236,0.29500604
8.04081,0.29678273
7.9926906,0.2987513
7.9448724,0.29890308
7.8973556,0.30042544
7.850135,0.30130696
7.80321,0.30293262
7.7565756,0.30475393
7.710231,0.3081879
7.664174,0.31051403
7.6184006,0.31228423
7.57291,0.31262487
7.5276995,0.31353715
7.482766,0.31532282
7.4381084,0.31506664
7.3937244,0.3190219
7.349611,0.31994802
7.3057675,0.32246485
7.2621903,0.3231991
7.218879,0.3256415
7.175831,0.3265824
7.133044,0.3282358
7.090517,0.3290771
7.0482473,0.33197853
7.0062337,0.33386555
6.9644732,0.3365979
6.9229665,0.33872092
6.881709,0.3410684
6.840701,0.34151962
6.79994,0.3423913
6.7594247,0.34379855
6.719154,0.34585902
6.679125,0.34782305
6.6393356,0.34957913
6.599786,0.35057297
6.560474,0.3535598
6.5213976,0.35378405
6.482556,0.35601598
6.443947,0.356232
6.4055705,0.3583662
6.367422,0.35948616
6.3295035,0.3603769
6.291812,0.36103433
6.254346,0.36319703
6.217103,0.36408707
6.1800838,0.36650318
6.1432858,0.36905336
6.106708,0.37031195
6.0703483,0.37145266
6.034206,0.37452045
5.9982805,0.37652123
5.9625683,0.37902015
5.92707,0.38263878
5.891784,0.38517705
5.856708,0.38636726
5.8218417,0.3905534
5.787183,0.39289245
5.752732,0.3958769
5.718485,0.39723113
5.684444,0.40024915
5.650605,0.40316042
5.616968,0.40596285
5.583532,0.40878433
5.550295,0.41162506
5.5172563,0.41553873
5.4844136,0.41855708
5.4517684,0.42106342
5.419316,0.42358488
5.387058,0.42423287
5.3549924,0.42650175
5.3231173,0.4290557
5.2914324,0.43093818
5.2599363,0.4328278
5.228627,0.4361145
5.1975055,0.4383064
5.166569,0.44121224
5.135817,0.44399554
5.105248,0.44608474
5.0748606,0.4507605
5.044654,0.45605248
5.0146275,0.45805869
4.9847803,0.46050987
4.955111,0.46004087
4.9256177,0.4626479
4.8963003,0.46467605
4.867158,0.46745834
4.8381886,0.4708581
4.809392,0.4715621
4.7807665,0.47286564
4.7523127,0.4763085
4.724026,0.47808376
4.695909,0.4800179
4.667959,0.48304778
4.640177,0.48734927
4.612559,0.49058232
4.585105,0.49256888
4.557816,0.4948803
4.530688,0.49992847
4.5037217,0.501147
4.4769163,0.5017129
4.450271,0.503084
4.423784,0.5069175
4.3974533,0.50846547
4.3712807,0.51017994
4.345264,0.5117296
4.3194017,0.51327944
4.293693,0.51415265
4.2681384,0.5162095
4.2427354,0.5194715
4.217483,0.52240956
4.192381,0.5253642
4.16743,0.528684
4.142626,0.53062165
4.11797,0.5334457
4.09346,0.53646225
4.069097,0.5386027
4.0448785,0.54128873
4.0208044,0.5439874
3.9968739,0.547608
3.9730854,0.5519842
3.949438,0.55565727
3.925932,0.55824375
3.9025662,0.56046885
3.8793387,0.56419927
3.85625,0.5636201
3.8332987,0.5671843
3.8104842,0.5719151
3.7878044,0.5743803
3.7652605,0.57762635
3.742851,0.58050233
3.7205741,0.58358735
3.6984303,0.58727795
3.6764178,0.592178
3.6545374,0.5947293
3.632786,0.5994904
3.6111646,0.6028785
3.5896719,0.60547596
3.5683074,0.60706466
3.5470698,0.6117238
3.525958,0.6133256
3.5049734,0.61554635
3.484112,0.61964905
3.4633756,0.62147087
3.4427624,0.62519187
3.4222722,0.627024
3.4019039,0.63099194
3.3816562,0.63605917
3.3615294,0.6402999
3.3415227,0.644351
3.321635,0.6506154
3.3018653,0.6567117
3.2822137,0.6606437
3.2626784,0.6637083
3.24326,0.6688025
3.2239568,0.6712292
3.2047691,0.6752479
3.1856952,0.6767818
3.1667347,0.6789981
3.1478868,0.6835253
3.1291518,0.6850632
3.1105278,0.6882305
3.0920146,0.6970515
3.0736122,0.7031163
3.0553188,0.70613694
3.037134,0.7132361
3.0190578,0.71341467
3.0010896,0.71308553
2.9832275,0.71565
2.9654722,0.7199349
2.9478228,0.71882206
2.930278,0.7216381
2.9128375,0.72296524
2.895501,0.72779584
2.878268,0.7288712
2.8611374,0.73323524
2.8441086,0.738392
2.8271809,0.74332714
2.8103547,0.7464847
2.7936282,0.750434
2.7770011,0.7554505
2.7604735,0.7597103
2.7440438,0.7594922
2.7277122,0.76297396
2.711477,0.7686144
2.6953394,0.7748339
2.6792972,0.77865946
2.663351,0.7811388
2.6474993,0.7827965
2.631742,0.78389394
2.6160786,0.790254
2.6005085,0.7941474
2.5850313,0.79693437
2.5696461,0.7983123
2.5543516,0.8033768
2.5391486,0.8030356
2.524037,0.8061161
2.5090146,0.81065303
2.4940815,0.81317586
2.4792366,0.8151139
2.4644816,0.8182249
2.4498136,0.8240138
2.4352329,0.8298427
2.420739,0.83541155
2.4063315,0.84494305
2.3920097,0.8521286
2.377773,0.85600823
2.363621,0.85682946
2.3495533,0.85670185
2.3355696,0.8556086
2.3216686,0.8591665
2.3078513,0.8617915
2.294115,0.86346734
2.280461,0.8730984
2.2668889,0.8821724
2.253397,0.8835846
2.2399855,0.88011587
2.2266536,0.8879963
2.213401,0.88609046
2.2002275,0.89139587
2.1871324,0.8977297
2.174115,0.9064471
2.1611753,0.90851194
2.1483126,0.9136133
2.1355262,0.9153404
2.1228166,0.91808224
2.1101818,0.91910255
2.0976226,0.9218342
2.0851378,0.9249142
2.0727284,0.9269458
2.060392,0.9353172
2.0481286,0.94411075
2.0359385,0.94512355
2.0238216,0.95006406
2.0117764,0.9557524
1.9998028,0.9607483
1.9879006,0.96321046
1.9760691,0.9689776
1.9643079,0.9784788
1.9526169,0.9772663
1.9409955,0.9808713
1.9294431,0.9923933
1.9179596,0.99985075
1.9065444,1.0008824
1.8951972,1.014927
1.8839173,1.0206182
1.8727047,1.0205204
1.8615594,1.0231172
1.8504798,1.0272795
1.8394659,1.0279
1.8285179,1.0336568
1.8176354,1.041045
1.8068173,1.0504954
1.7960637,1.0543575
1.7853739,1.0622984
1.7747478,1.0678399
1.7641851,1.0692908
1.753685,1.0773505
1.7432475,1.0821335
1.7328722,1.097419
1.7225585,1.0976621
1.7123064,1.1067803
1.7021154,1.1099914
1.6919845,1.1153492
1.6819143,1.1116579
1.6719041,1.1152714
1.6619537,1.1232603
1.6520622,1.1255872
1.6422291,1.1296719
1.6324553,1.138216
1.6227394,1.1459265
1.6130813,1.1496341
1.6034806,1.157424
1.5939372,1.1711924
1.5844505,1.1717837
1.5750202,1.1751088
1.5656462,1.1909633
1.5563277,1.2008955
1.5470649,1.2062067
1.5378572,1.2110662
1.5287046,1.2154648
1.5196058,1.2107879
1.5105615,1.2189993
1.5015709,1.2292016
1.4926344,1.2365611
1.4837507,1.241516
1.4749194,1.2504277
1.466141,1.2475063
1.4574152,1.252981
1.4487412,1.2534606
1.4401187,1.2584426
1.4315474,1.268008
1.4230273,1.2781531
1.4145577,1.278614
1.4061385,1.2919543
1.3977697,1.2960505
1.3894506,1.3022416
1.3811809,1.3084602
1.3729603,1.3178823
1.3647891,1.3241754
