energy,intensity
97.76732,0.011646904
92.828835,0.012250862
88.18945,0.012994222
83.8307,0.013947236
79.735245,0.014718294
75.88682,0.0155796055
72.27017,0.016670963
68.87099,0.017546529
65.67586,0.018643584
62.672165,0.01950233
59.848106,0.020738278
57.19261,0.021917166
54.69525,0.023157042
52.346306,0.024598742
50.136597,0.026074234
48.057564,0.027625624
46.10113,0.028545797
44.25976,0.030340876
42.52636,0.031509243
40.894283,0.033068847
39.357292,0.03480338
37.909534,0.036803402
36.545517,0.0381174
35.260098,0.039816108
34.04844,0.04159584
32.906017,0.043349117
31.828575,0.045432974
30.812122,0.047356255
29.85292,0.049802836
28.947456,0.05203843
28.092442,0.054294795
27.284779,0.05595526
26.521572,0.05803125
25.800108,0.059710342
25.117828,0.061592646
24.472345,0.063335985
23.861408,0.065383956
23.282911,0.06766393
22.734882,0.07028582
22.215462,0.07343384
21.722916,0.07633659
21.255604,0.07832257
20.812004,0.080341145
20.390675,0.08321287
19.990267,0.0847706
19.609518,0.08697239
19.247244,0.08989304
18.902327,0.09310953
18.573725,0.095773995
18.260456,0.09861089
17.961601,0.101101235
17.676302,0.10404853
17.403744,0.10617907
17.143167,0.10847119
16.893862,0.11097523
16.655159,0.11465998
16.426428,0.11718557
16.207083,0.12038563
15.996571,0.12328726
15.794373,0.12546368
15.6,0.12739956
15.412999,0.12894528
15.232939,0.13175747
15.05942,0.13462672
14.892062,0.13731073
14.730514,0.1399019
14.574441,0.14289583
14.423531,0.14499548
14.277491,0.14627501
14.136047,0.1493322
13.998942,0.15167718
13.865933,0.15365621
13.73679,0.15647618
13.611302,0.15903991
13.48927,0.16166382
13.3705015,0.16478465
13.254824,0.16792227
13.142069,0.1701371
13.032082,0.17252094
12.924716,0.1740103
12.819836,0.17509378
12.717309,0.17713392
12.617017,0.17934826
12.518845,0.1817415
12.422684,0.18414274
12.328438,0.18602197
12.23601,0.1885555
12.145311,0.19116022
12.056257,0.19341603
11.968773,0.19513336
11.882783,0.1974016
11.798219,0.19955559
11.7150135,0.20109697
11.633108,0.20295008
11.552444,0.20474455
11.472969,0.20768297
11.394629,0.2098761
11.317378,0.21252866
11.241171,0.21493907
11.165965,0.21690738
11.091721,0.21894892
11.018401,0.220208
10.945969,0.22219627
10.874393,0.22466114
10.803641,0.2270068
10.733684,0.22970495
10.664492,0.2326262
10.596042,0.23467758
10.528306,0.23708467
10.461264,0.23964599
10.394891,0.24299374
10.329167,0.24432881
10.264075,0.24665706
10.199594,0.24957009
10.135705,0.25142998
10.072394,0.2534432
10.0096445,0.25699216
9.947442,0.25889137
9.885775,0.26094738
9.824624,0.26316327
9.763982,0.2656908
9.703834,0.2668135
9.64417,0.26861483
9.584979,0.27027363
9.526253,0.2709481
9.467979,0.2717715
9.410151,0.27313274
9.3527565,0.2751973
9.295791,0.2761802
9.239244,0.27731994
9.183109,0.27996475
9.12738,0.28055948
9.07205,0.28042835
9.01711,0.28229812
8.962557,0.2840975
8.908382,0.2863962
8.854581,0.29010597
8.801149,0.29880267
8.74808,0.30103067
8.69537,0.3024376
8.643014,0.30359703
8.591007,0.30518112
8.539344,0.3072828
8.48802,0.30871278
8.437034,0.30859745
8.38638,0.310548
8.336055,0.31189978
8.286055,0.31422034
8.236377,0.31726253
8.187016,0.321128
8.13797,0.32386702
8.089236,0.3267165
8.04081,0.32732862
7.9926906,0.3283901
7.9448724,0.33009216
7.8973556,0.3310661
7.850135,0.33231705
7.80321,0.33431545
7.7565756,0.337637
7.710231,0.33994922
7.664174,0.3421817
7.6184006,0.34347457
7.57291,0.34429044
7.5276995,0.34442753
7.482766,0.3457189
7.4381084,0.34535217
7.3937244,0.34830981
7.349611,0.3498072
7.3057675,0.35220486
7.2621903,0.3547185
7.218879,0.35584012
7.175831,0.35625333
7.133044,0.3586959
7.090517,0.35818264
7.0482473,0.35940284
7.0062337,0.36249152
6.9644732,0.36539546
6.9229665,0.36800602
6.881709,0.37031794
6.840701,0.3692448
6.79994,0.36953464
6.7594247,0.37110457
6.719154,0.37311247
6.679125,0.37371665
6.6393356,0.37792638
6.599786,0.37798908
6.560474,0.37958947
6.5213976,0.3820868
6.482556,0.38336733
6.443947,0.38228127
6.4055705,0.38525218
6.367422,0.38562024
6.3295035,0.38483065
6.291812,0.3857501
6.254346,0.38806087
6.217103,0.38921672
6.1800838,0.3897844
6.1432858,0.39093632
6.106708,0.39054102
6.0703483,0.39335912
6.034206,0.3960764
5.9982805,0.39820638
5.9625683,0.40107885
5.92707,0.40409398
5.891784,0.4075008
5.856708,0.40994135
5.8218417,0.41314536
5.787183,0.41536856
5.752732,0.4189929
5.718485,0.4204856
5.684444,0.42249227
5.650605,0.4248937
5.616968,0.42782632
5.583532,0.43129936
5.550295,0.43309656
5.5172563,0.4351632
5.4844136,0.43723917
5.4517684,0.4390576
5.419316,0.44007778
5.387058,0.44284782
5.3549924,0.44495678
5.3231173,0.4461196
5.2914324,0.44796696
5.2599363,0.4499585
5.228627,0.45279187
5.1975055,0.45494384
5.166569,0.45696473
5.135817,0.45998397
5.105248,0.4640192
5.0748606,0.4676568
5.044654,0.47175354
5.0146275,0.47298425
4.9847803,0.47537905
4.955111,0.47529244
4.9256177,0.47784328
4.8963003,0.4775878
4.867158,0.4785065
4.8381886,0.48227277
4.809392,0.48395166
4.7807665,0.48365745
4.7523127,0.4879295
4.724026,0.48977432
4.695909,0.49038577
4.667959,0.49192095
4.640177,0.49564925
4.612559,0.49798685
4.585105,0.5012856
4.557816,0.5044463
4.530688,0.50730646
4.5037217,0.5066329
4.4769163,0.5072316
4.450271,0.50814587
4.423784,0.5111884
4.3974533,0.51424915
4.3712807,0.51533335
4.345264,0.5180844
4.3194017,0.5193358
4.293693,0.5183836
4.2681384,0.5202956
4.2427354,0.5256373
4.217483,0.5256833
4.192381,0.53004414
4.16743,0.53182256
4.142626,0.53307736
4.11797,0.5329163
4.09346,0.53699476
4.069097,0.53842413
4.0448785,0.5402107
4.0208044,0.5441681
3.9968739,0.5483352
3.9730854,0.55125254
3.949438,0.5556572
3.925932,0.5541717
3.9025662,0.55786204
3.8793387,0.5625135
3.85625,0.56230104
3.8332987,0.5675634
3.8104842,0.5717244
3.7878044,0.57457215
3.7652605,0.5807143
3.742851,0.5839969
3.7205741,0.5826107
3.6984303,0.58747447
3.6764178,0.5880271
3.6545374,0.5911501
3.632786,0.5956898
3.6111646,0.5992564
3.5896719,0.5992006
3.5683074,0.60197353
3.5470698,0.6016854
3.525958,0.6044637
3.5049734,0.60766804
3.484112,0.61339206
3.4633756,0.61664504
3.4427624,0.62455857
3.4222722,0.62468827
3.4019039,0.6269332
3.3816562,0.63111675
3.3615294,0.6333824
3.3415227,0.6371746
3.321635,0.64470863
3.3018653,0.6476885
3.2822137,0.651345
3.2626784,0.6554676
3.24326,0.6578238
3.2239568,0.65815604
3.2047691,0.6625501
3.1856952,0.66263926
3.1667347,0.66362363
3.1478868,0.67059803
3.1291518,0.6729875
3.1105278,0.67701703
3.0920146,0.688591
3.0736122,0.6931866
3.0553188,0.69519645
3.037134,0.7000767
3.0190578,0.69969517
3.0010896,0.69516754
2.9832275,0.6990863
2.9654722,0.7025368
2.9478228,0.7040314
2.930278,0.7092387
2.9128375,0.71074104
2.895501,0.7139927
2.878268,0.71751016
2.8611374,0.71774256
2.8441086,0.721018
2.8271809,0.7258491
2.8103547,0.73019487
2.7936282,0.7335264
2.7770011,0.7376567
2.7604735,0.7439159
2.7440438,0.74095505
2.7277122,0.74326026
2.711477,0.7503906
2.6953394,0.7559617
2.6792972,0.7561486
2.663351,0.7617672
2.6474993,0.7712687
2.631742,0.7687077
2.6160786,0.7791433
2.6005085,0.78157276
2.5850313,0.7845656
2.5696461,0.7884148
2.5543516,0.79256654
2.5391486,0.7938776
2.524037,0.7997824
2.5090146,0.7999369
2.4940815,0.8015215
2.4792366,0.8010451
2.4644816,0.80731523
2.4498136,0.8139287
2.4352329,0.82297957
2.420739,0.8249052
2.4063315,0.8367898
2.3920097,0.84058464
2.377773,0.84103364
2.363621,0.8402279
2.3495533,0.84433067
2.3355696,0.8431634
2.3216686,0.8450819
2.3078513,0.85643876
2.294115,0.86220026
2.280461,0.8683187
2.2668889,0.8735174
2.253397,0.8729428
2.2399855,0.87233007
2.2266536,0.87592137
2.213401,0.88083756
2.2002275,0.8847903
2.1871324,0.8924135
2.174115,0.90243614
2.1611753,0.90548575
2.1483126,0.9041422
2.1355262,0.90445167
2.1228166,0.90678596
2.1101818,0.9104935
2.0976226,0.9138664
2.0851378,0.91550463
2.0727284,0.92589396
2.060392,0.93073237
2.0481286,0.93240243
2.0359385,0.9337022
2.0238216,0.9392923
2.0117764,0.94563854
1.9998028,0.95566094
1.9879006,0.962845
1.9760691,0.9726551
1.9643079,0.97514933
1.9526169,0.9735449
1.9409955,0.9760044
1.9294431,0.9803416
1.9179596,0.9835593
1.9065444,0.9879236
1.8951972,0.9999735
1.8839173,1.0051893
1.8727047,1.0057752
1.8615594,1.0047705
1.8504798,1.0143209
1.8394659,1.010123
1.8285179,1.0173632
1.8176354,1.0262527
1.8068173,1.0408431
1.7960637,1.0474797
1.7853739,1.0561935
1.7747478,1.0707061
1.7641851,1.0734098
1.753685,1.0802511
1.7432475,1.0817169
1.7328722,1.0936449
1.7225585,1.0934433
1.7123064,1.096595
1.7021154,1.0924878
1.6919845,1.0977407
1.6819143,1.0978326
1.6719041,1.1052749
1.6619537,1.1097062
1.6520622,1.1137112
1.6422291,1.1137424
1.6324553,1.1172945
1.6227394,1.1235363
1.6130813,1.1311643
1.6034806,1.1370308
1.5939372,1.1429267
1.5844505,1.1456423
1.5750202,1.156654
1.5656462,1.1705413
1.5563277,1.1747483
1.5470649,1.1827214
1.5378572,1.1869676
1.5287046,1.1893207
1.5196058,1.1868782
1.5105615,1.1944656
1.5015709,1.2059728
1.4926344,1.2131928
1.4837507,1.2184976
1.4749194,1.2243154
1.466141,1.2252028
1.4574152,1.2230649
1.4487412,1.2283814
1.4401187,1.2337179
1.4315474,1.2385665
1.4230273,1.2378117
1.4145577,1.2431682
1.4061385,1.2495782
1.3977697,1.2497816
1.3894506,1.2609254
1.3811809,1.2711058
1.3729603,1.2776577
1.3647891,1.2879695
