energy,intensity
97.76732,0.011394195
92.828835,0.011929915
88.18945,0.012656389
83.8307,0.013435809
79.735245,0.014299072
75.88682,0.015091246
72.27017,0.016027452
68.87099,0.01682905
65.67586,0.01783588
62.672165,0.01871389
59.848106,0.019706221
57.19261,0.02078637
54.69525,0.022173893
52.346306,0.023613129
50.136597,0.024740808
48.057564,0.02620427
46.10113,0.027111411
44.25976,0.028699059
42.52636,0.030073896
40.894283,0.03168283
39.357292,0.03327092
37.909534,0.035020743
36.545517,0.03642727
35.260098,0.0386002
34.04844,0.04044336
32.906017,0.04239954
31.828575,0.04447408
30.812122,0.04629498
29.85292,0.0491943
28.947456,0.05118493
28.092442,0.05357052
27.284779,0.05547587
26.521572,0.057647668
25.800108,0.059456863
25.117828,0.06141906
24.472345,0.06342506
23.861408,0.065901674
23.282911,0.06806968
22.734882,0.070701346
22.215462,0.073466554
21.722916,0.07647039
21.255604,0.07845932
20.812004,0.080445886
20.390675,0.08271396
19.990267,0.084407076
19.609518,0.086231254
19.247244,0.08876042
18.902327,0.091264255
18.573725,0.0937396
18.260456,0.09614364
17.961601,0.098309726
17.676302,0.10055423
17.403744,0.10233774
17.143167,0.10427479
16.893862,0.1068459
16.655159,0.10977341
16.426428,0.11223094
16.207083,0.11451207
15.996571,0.116836704
15.794373,0.118792534
15.6,0.12031926
15.412999,0.122203365
15.232939,0.12522207
15.05942,0.12791951
14.892062,0.12960103
14.730514,0.13166367
14.574441,0.13471895
14.423531,0.1363804
14.277491,0.13874242
14.136047,0.14115877
13.998942,0.14389089
13.865933,0.14616206
13.73679,0.14854127
13.611302,0.15023103
13.48927,0.15229043
13.3705015,0.15505627
13.254824,0.15706737
13.142069,0.1590232
13.032082,0.16170353
12.924716,0.16310301
12.819836,0.16500422
12.717309,0.16639163
12.617017,0.16759905
12.518845,0.16902944
12.422684,0.17139079
12.328438,0.1722884
12.23601,0.17442124
12.145311,0.17602295
12.056257,0.17840806
11.968773,0.17989427
11.882783,0.18144068
11.798219,0.18243322
11.7150135,0.1834188
11.633108,0.18570963
11.552444,0.18713214
11.472969,0.18887179
11.394629,0.19131824
11.317378,0.19403672
11.241171,0.19548142
11.165965,0.19712344
11.091721,0.19863947
11.018401,0.19916987
10.945969,0.20088618
10.874393,0.2024757
10.803641,0.2035999
10.733684,0.20573926
10.664492,0.20748296
10.596042,0.2090976
10.528306,0.21044286
10.461264,0.21262506
10.394891,0.21461184
10.329167,0.21541457
10.264075,0.21642673
10.199594,0.21815117
10.135705,0.21909606
10.072394,0.2202568
10.0096445,0.22192797
9.947442,0.2230235
9.885775,0.22456174
9.824624,0.22699496
9.763982,0.22758615
9.703834,0.22802332
9.64417,0.22890654
9.584979,0.22978945
9.526253,0.22975667
9.467979,0.23040323
9.410151,0.22988863
9.3527565,0.23122168
9.295791,0.22958994
9.239244,0.23068054
9.183109,0.23232801
9.12738,0.2329504
9.07205,0.23260896
9.01711,0.2334621
8.962557,0.23463991
8.908382,0.23622994
8.854581,0.23807566
8.801149,0.24422722
8.74808,0.24620716
8.69537,0.24744897
8.643014,0.24802306
8.591007,0.2491016
8.539344,0.25026828
8.48802,0.25161037
8.437034,0.25166667
8.38638,0.2524069
8.336055,0.2541922
8.286055,0.25633997
8.236377,0.25876835
8.187016,0.26032853
8.13797,0.26287967
8.089236,0.2648227
8.04081,0.26605618
7.9926906,0.266476
7.9448724,0.2685372
7.8973556,0.2699689
7.850135,0.2710374
7.80321,0.27350542
7.7565756,0.2768361
7.710231,0.27991384
7.664174,0.28225964
7.6184006,0.28490937
7.57291,0.28700465
7.5276995,0.28718382
7.482766,0.28958812
7.4381084,0.29005677
7.3937244,0.29356703
7.349611,0.29542792
7.3057675,0.2989912
7.2621903,0.30108553
7.218879,0.30389857
7.175831,0.3044052
7.133044,0.30602738
7.090517,0.30663306
7.0482473,0.30888435
7.0062337,0.3116701
6.9644732,0.31447798
6.9229665,0.31688827
6.881709,0.32026643
6.840701,0.32059285
6.79994,0.32176656
6.7594247,0.3241252
6.719154,0.32704118
6.679125,0.32867482
6.6393356,0.33206737
6.599786,0.33295628
6.560474,0.3350622
6.5213976,0.33662418
6.482556,0.33897746
6.443947,0.33909136
6.4055705,0.34134978
6.367422,0.34191126
6.3295035,0.34212273
6.291812,0.3437102
6.254346,0.345653
6.217103,0.3472561
6.1800838,0.3492186
6.1432858,0.352375
6.106708,0.35353366
6.0703483,0.3550527
6.034206,0.35717934
5.9982805,0.35992426
5.9625683,0.36195812
5.92707,0.36535197
5.891784,0.36828008
5.856708,0.37048572
5.8218417,0.37420237
5.787183,0.3774479
5.752732,0.37895045
5.718485,0.37994915
5.684444,0.3827358
5.650605,0.38374183
5.616968,0.38603985
5.583532,0.3906942
5.550295,0.39395028
5.5172563,0.3977581
5.4844136,0.40040502
5.4517684,0.40266937
5.419316,0.40213078
5.387058,0.4057528
5.3549924,0.4075039
5.3231173,0.40748686
5.2914324,0.40882826
5.2599363,0.41182885
5.228627,0.4148508
5.1975055,0.41635618
5.166569,0.4189899
5.135817,0.42192322
5.105248,0.42544594
5.0748606,0.42870936
5.044654,0.4334371
5.0146275,0.436757
4.9847803,0.43835172
4.955111,0.4374568
4.9256177,0.43874842
4.8963003,0.43855566
4.867158,0.43909135
4.8381886,0.44322243
4.809392,0.4452719
4.7807665,0.44733
4.7523127,0.45061994
4.724026,0.45316428
4.695909,0.454485
4.667959,0.4562722
4.640177,0.45978713
4.612559,0.4631703
4.585105,0.46530962
4.557816,0.46921164
4.530688,0.47170034
4.5037217,0.47291112
4.4769163,0.47184715
4.450271,0.47483546
4.423784,0.4753789
4.3974533,0.47822532
4.3712807,0.4812549
4.345264,0.48296577
4.3194017,0.48434338
4.293693,0.48318163
4.2681384,0.48624483
4.2427354,0.48949867
4.217483,0.49122348
4.192381,0.4955514
4.16743,0.49764648
4.142626,0.49834576
4.11797,0.5000943
4.09346,0.5030886
4.069097,0.50556505
4.0448785,0.5084125
4.0208044,0.5112759
3.9968739,0.51397336
3.9730854,0.5155876
3.949438,0.5188586
3.925932,0.51900375
3.9025662,0.5221111
3.8793387,0.5261739
3.85625,0.5278168
3.8332987,0.5300291
3.8104842,0.5349189
3.7878044,0.5363952
3.7652605,0.5423086
3.742851,0.5451673
3.7205741,0.5466737
3.6984303,0.5511257
3.6764178,0.5546232
3.6545374,0.55774504
3.632786,0.5618847
3.6111646,0.5604194
3.5896719,0.5585116
3.5683074,0.5594119
3.5470698,0.56030285
3.525958,0.5640699
3.5049734,0.56931293
3.484112,0.5745989
3.4633756,0.57782936
3.4427624,0.5817112
3.4222722,0.5811598
3.4019039,0.58442575
3.3816562,0.59028876
3.3615294,0.59187746
3.3415227,0.59128934
3.321635,0.5974549
3.3018653,0.6045533
3.2822137,0.61082965
3.2626784,0.6140416
3.24326,0.6170459
3.2239568,0.61916256
3.2047691,0.6226429
3.1856952,0.6215808
3.1667347,0.62094253
3.1478868,0.6281229
3.1291518,0.6284004
3.1105278,0.63099474
3.0920146,0.6422933
3.0736122,0.64850307
3.0553188,0.64976966
3.037134,0.65605277
3.0190578,0.6549262
3.0010896,0.6544891
2.9832275,0.65718997
2.9654722,0.6608795
2.9478228,0.66508305
2.930278,0.6663373
2.9128375,0.66783226
2.895501,0.670576
2.878268,0.67358106
2.8611374,0.6750742
2.8441086,0.68243766
2.8271809,0.68729484
2.8103547,0.69140977
2.7936282,0.69346863
2.7770011,0.69709736
2.7604735,0.6996916
2.7440438,0.6985846
2.7277122,0.7022344
2.711477,0.7083151
2.6953394,0.7130952
2.6792972,0.7173647
2.663351,0.7235697
2.6474993,0.727902
2.631742,0.73143196
2.6160786,0.7380334
2.6005085,0.741614
2.5850313,0.74464864
2.5696461,0.7457136
2.5543516,0.7490408
2.5391486,0.75037766
2.524037,0.7499759
2.5090146,0.7518596
2.4940815,0.7543219
2.4792366,0.75678676
2.4644816,0.76102287
2.4498136,0.7673591
2.4352329,0.7773248
2.420739,0.78077817
2.4063315,0.7899826
2.3920097,0.79714286
2.377773,0.7997764
2.363621,0.8002609
2.3495533,0.80381525
2.3355696,0.80458325
2.3216686,0.8068968
2.3078513,0.8167656
2.294115,0.8232398
2.280461,0.83071804
2.2668889,0.8334478
2.253397,0.8336008
2.2399855,0.8324281
2.2266536,0.83545417
2.213401,0.84078467
2.2002275,0.8468094
2.1871324,0.85221183
2.174115,0.85998833
2.1611753,0.86244756
2.1483126,0.864567
2.1355262,0.8656602
2.1228166,0.86776227
2.1101818,0.8705475
2.0976226,0.8722954
2.0851378,0.88065493
2.0727284,0.884525
2.060392,0.8905265
2.0481286,0.89266527
2.0359385,0.8937272
2.0238216,0.8954874
2.0117764,0.902655
1.9998028,0.90987635
1.9879006,0.9149586
1.9760691,0.9237464
1.9643079,0.9289075
1.9526169,0.9318641
1.9409955,0.9303303
1.9294431,0.93665373
1.9179596,0.9415041
1.9065444,0.94599783
1.8951972,0.95626295
1.8839173,0.9646886
1.8727047,0.96309197
1.8615594,0.9630027
1.8504798,0.9730884
1.8394659,0.9745692
1.8285179,0.97603285
1.8176354,0.9862741
1.8068173,0.9970056
1.7960637,1.0041887
1.7853739,1.0097941
1.7747478,1.0228009
1.7641851,1.0318078
1.753685,1.0321847
1.7432475,1.0308616
1.7328722,1.0466784
1.7225585,1.0483052
1.7123064,1.0486404
1.7021154,1.054065
1.6919845,1.05737
1.6819143,1.0559238
1.6719041,1.0657232
1.6619537,1.0738528
1.6520622,1.0802823
1.6422291,1.0787859
1.6324553,1.0807933
1.6227394,1.0868165
1.6130813,1.0928732
1.6034806,1.0917127
1.5939372,1.0987049
1.5844505,1.1034489
1.5750202,1.1105169
1.5656462,1.1292335
1.5563277,1.1373955
1.5470649,1.144675
1.5378572,1.1505835
1.5287046,1.1584231
1.5196058,1.1457534
1.5105615,1.1516511
1.5015709,1.1653218
1.4926344,1.1757066
1.4837507,1.17491
1.4749194,1.1760327
1.466141,1.1850567
1.4574152,1.1836755
1.4487412,1.1867499
1.4401187,1.1923418
1.4315474,1.2035416
1.4230273,1.2097263
1.4145577,1.2077228
1.4061385,1.2180547
1.3977697,1.2170295
1.3894506,1.2326839
1.3811809,1.2321728
1.3729603,1.2453725
1.3647891,1.2517636
