energy,intensity
97.76732,0.011156352
92.828835,0.011789011
88.18945,0.012516312
83.8307,0.013375133
79.735245,0.014244391
75.88682,0.015167852
72.27017,0.016107889
68.87099,0.017124481
65.67586,0.018201008
62.672165,0.019235656
59.848106,0.020434733
57.19261,0.021713877
54.69525,0.023024183
52.346306,0.024390513
50.136597,0.02590031
48.057564,0.027761707
46.10113,0.028861042
44.25976,0.030505061
42.52636,0.031697206
40.894283,0.03328208
39.357292,0.034747988
37.909534,0.036420036
36.545517,0.03781914
35.260098,0.039713066
34.04844,0.04138242
32.906017,0.043282866
31.828575,0.045410138
30.812122,0.047497757
29.85292,0.0497785
28.947456,0.051812507
28.092442,0.05403612
27.284779,0.05619495
26.521572,0.058716238
25.800108,0.06083696
25.117828,0.06286557
24.472345,0.06479096
23.861408,0.06699801
23.282911,0.06916203
22.734882,0.071660236
22.215462,0.074807666
21.722916,0.07794227
21.255604,0.08027123
20.812004,0.082471
20.390675,0.08499475
19.990267,0.08738786
19.609518,0.08967754
19.247244,0.09242259
18.902327,0.095108576
18.573725,0.098004036
18.260456,0.10044144
17.961601,0.10352864
17.676302,0.10614514
17.403744,0.10864253
17.143167,0.11114166
16.893862,0.11381414
16.655159,0.116797864
16.426428,0.11939745
16.207083,0.12213427
15.996571,0.12487718
15.794373,0.12721197
15.6,0.13005471
15.412999,0.13215123
15.232939,0.13533525
15.05942,0.13834222
14.892062,0.14082403
14.730514,0.14350304
14.574441,0.14623639
14.423531,0.14771603
14.277491,0.15024489
14.136047,0.15262212
13.998942,0.1553627
13.865933,0.15800597
13.73679,0.16086683
13.611302,0.1631507
13.48927,0.1661889
13.3705015,0.1691869
13.254824,0.17236294
13.142069,0.17500292
13.032082,0.17787388
12.924716,0.1799137
12.819836,0.18251927
12.717309,0.1858192
12.617017,0.18890892
12.518845,0.19166735
12.422684,0.19490585
12.328438,0.1969263
12.23601,0.20025484
12.145311,0.20216914
12.056257,0.20528984
11.968773,0.20751897
11.882783,0.2101214
11.798219,0.2121202
11.7150135,0.21474329
11.633108,0.21719222
11.552444,0.22084737
11.472969,0.2232006
11.394629,0.22620192
11.317378,0.22870907
11.241171,0.23051815
11.165965,0.23194058
11.091721,0.23355862
11.018401,0.23484898
10.945969,0.23693414
10.874393,0.23936233
10.803641,0.24140072
10.733684,0.24344797
10.664492,0.24570887
10.596042,0.24695325
10.528306,0.24805894
10.461264,0.25048223
10.394891,0.25285053
10.329167,0.25474077
10.264075,0.25734743
10.199594,0.25854692
10.135705,0.25974646
10.072394,0.26173985
10.0096445,0.26359844
9.947442,0.26553896
9.885775,0.2669749
9.824624,0.26826677
9.763982,0.27023062
9.703834,0.2713814
9.64417,0.27336174
9.584979,0.27376103
9.526253,0.27476215
9.467979,0.27507177
9.410151,0.27506328
9.3527565,0.27721742
9.295791,0.27782184
9.239244,0.2789716
9.183109,0.28091434
9.12738,0.28215182
9.07205,0.28211048
9.01711,0.28326517
8.962557,0.2845029
8.908382,0.28623304
8.854581,0.28887495
8.801149,0.2961606
8.74808,0.2987048
8.69537,0.3005155
8.643014,0.3015792
8.591007,0.30238986
8.539344,0.30464482
8.48802,0.30520272
8.437034,0.3066165
8.38638,0.3080352
8.336055,0.31033066
8.286055,0.31308025
8.236377,0.31567442
8.187016,0.31908658
8.13797,0.32074174
8.089236,0.3231232
8.04081,0.3239848
7.9926906,0.32429883
7.9448724,0.32497022
7.8973556,0.3263734
7.850135,0.32713324
7.80321,0.3283555
7.7565756,0.33107913
7.710231,0.33391744
7.664174,0.3355448
7.6184006,0.33717933
7.57291,0.3382452
7.5276995,0.3390217
7.482766,0.34105748
7.4381084,0.3404674
7.3937244,0.34241298
7.349611,0.34417155
7.3057675,0.3453418
7.2621903,0.34731394
7.218879,0.34909576
7.175831,0.3493672
7.133044,0.35136098
7.090517,0.3532634
7.0482473,0.35496956
7.0062337,0.35689077
6.9644732,0.35955244
6.9229665,0.36202306
6.881709,0.36419347
6.840701,0.36573932
6.79994,0.36718366
6.7594247,0.36895448
6.719154,0.36943543
6.679125,0.36990875
6.6393356,0.37114054
6.599786,0.37116253
6.560474,0.37283283
6.5213976,0.37339544
6.482556,0.3756327
6.443947,0.37653014
6.4055705,0.37855902
6.367422,0.37877285
6.3295035,0.37931994
6.291812,0.3810148
6.254346,0.38271633
6.217103,0.3832557
6.1800838,0.38543388
6.1432858,0.38809744
6.106708,0.38804215
6.0703483,0.38952845
6.034206,0.39354748
5.9982805,0.3959046
5.9625683,0.3980321
5.92707,0.40115157
5.891784,0.40244406
5.856708,0.40473023
5.8218417,0.4080278
5.787183,0.41034588
5.752732,0.4135612
5.718485,0.41514844
5.684444,0.41661185
5.650605,0.41936398
5.616968,0.42148724
5.583532,0.42492223
5.550295,0.4286452
5.5172563,0.43292418
5.4844136,0.43339673
5.4517684,0.4354588
5.419316,0.43645734
5.387058,0.4373173
5.3549924,0.43844327
5.3231173,0.4418878
5.2914324,0.445083
5.2599363,0.44802445
5.228627,0.45070726
5.1975055,0.4543847
5.166569,0.45738673
5.135817,0.4581446
5.105248,0.46074557
5.0748606,0.46293157
5.044654,0.46671194
5.0146275,0.46834722
4.9847803,0.47086
4.955111,0.47323936
4.9256177,0.47489277
4.8963003,0.47491646
4.867158,0.47761068
4.8381886,0.47956935
4.809392,0.48092985
4.7807665,0.48213753
4.7523127,0.4859417
4.724026,0.48792848
4.695909,0.48821935
4.667959,0.4905199
4.640177,0.4943964
4.612559,0.49704155
4.585105,0.50081
4.557816,0.50348973
4.530688,0.5073064
4.5037217,0.5064715
4.4769163,0.50706923
4.450271,0.50847244
4.423784,0.5106956
4.3974533,0.51309246
4.3712807,0.51533335
4.345264,0.5172483
4.3194017,0.5186629
4.293693,0.5171989
4.2681384,0.5204658
4.2427354,0.5258086
4.217483,0.52671707
4.192381,0.53021747
4.16743,0.53252006
4.142626,0.5318495
4.11797,0.53203404
4.09346,0.5371723
4.069097,0.53895986
4.0448785,0.5398515
4.0208044,0.54362595
3.9968739,0.5468807
3.9730854,0.54905784
3.949438,0.5521612
3.925932,0.5562076
3.9025662,0.5595378
3.8793387,0.5602656
3.85625,0.56135887
3.8332987,0.5668052
3.8104842,0.57038945
3.7878044,0.57380474
3.7652605,0.5785913
3.742851,0.58263785
3.7205741,0.5843686
3.6984303,0.5884569
3.6764178,0.59356153
3.6545374,0.59115016
3.632786,0.5962899
3.6111646,0.5988539
3.5896719,0.60081995
3.5683074,0.60095537
3.5470698,0.6041438
3.525958,0.6059063
3.5049734,0.60994864
3.484112,0.6127664
3.4633756,0.61664504
3.4427624,0.6205483
3.4222722,0.6223527
3.4019039,0.6254381
3.3816562,0.6321913
3.3615294,0.6361927
3.3415227,0.6413065
3.321635,0.64514625
3.3018653,0.6501093
3.2822137,0.65355885
3.2626784,0.6574721
3.24326,0.6625289
3.2239568,0.6610862
3.2047691,0.6666316
3.1856952,0.6692543
3.1667347,0.6737203
3.1478868,0.6775234
3.1291518,0.6792577
3.1105278,0.681923
3.0920146,0.68976605
3.0736122,0.6974422
3.0553188,0.6968613
3.037134,0.7031871
3.0190578,0.7016207
3.0010896,0.7017052
2.9832275,0.70322734
2.9654722,0.70915306
2.9478228,0.7119198
2.930278,0.71568644
2.9128375,0.7139843
2.895501,0.72101986
2.878268,0.7230645
2.8611374,0.72459996
2.8441086,0.72842747
2.8271809,0.7322749
2.8103547,0.7351078
2.7936282,0.73794836
2.7770011,0.7441985
2.7604735,0.74602187
2.7440438,0.7507533
2.7277122,0.75071955
2.711477,0.7565544
2.6953394,0.76270187
2.6792972,0.76537
2.663351,0.7707709
2.6474993,0.77428794
2.631742,0.7775434
2.6160786,0.78303206
2.6005085,0.7874409
2.5850313,0.79187447
2.5696461,0.79095984
2.5543516,0.7948425
2.5391486,0.7967395
2.524037,0.7989186
2.5090146,0.8019643
2.4940815,0.80297834
2.4792366,0.80690706
2.4644816,0.80878955
2.4498136,0.81274235
2.4352329,0.8226811
2.420739,0.8270065
2.4063315,0.83739364
2.3920097,0.843015
2.377773,0.8471457
2.363621,0.84422463
2.3495533,0.8471142
2.3355696,0.84938604
2.3216686,0.8516547
2.3078513,0.85832804
2.294115,0.86188376
2.280461,0.86608803
2.2668889,0.874479
2.253397,0.8735878
2.2399855,0.8752497
2.2266536,0.8769004
2.213401,0.87853956
2.2002275,0.88247854
2.1871324,0.8857688
2.174115,0.8927434
2.1611753,0.89539874
2.1483126,0.89805377
2.1355262,0.89968777
2.1228166,0.89993966
2.1101818,0.9018844
2.0976226,0.90867007
2.0851378,0.9127167
2.0727284,0.91607773
2.060392,0.92367876
2.0481286,0.926371
2.0359385,0.92906225
2.0238216,0.93749714
2.0117764,0.9452774
1.9998028,0.9505736
1.9879006,0.9599207
1.9760691,0.96125525
1.9643079,0.96294147
1.9526169,0.9646133
1.9409955,0.96589625
1.9294431,0.96678334
1.9179596,0.9744663
1.9065444,0.9780138
1.8951972,0.9861702
1.8839173,0.9920748
1.8727047,0.9910301
1.8615594,0.991889
1.8504798,1.0072523
1.8394659,1.0041974
1.8285179,1.0086201
1.8176354,1.016258
1.8068173,1.0263647
1.7960637,1.0321052
1.7853739,1.0358428
1.7747478,1.0457298
1.7641851,1.0458124
1.753685,1.0537316
1.7432475,1.0521207
1.7328722,1.0697423
1.7225585,1.0710851
1.7123064,1.0758004
1.7021154,1.0719955
1.6919845,1.0801321
1.6819143,1.0766622
1.6719041,1.0796314
1.6619537,1.0830346
1.6520622,1.0930378
1.6422291,1.0933878
1.6324553,1.0972633
1.6227394,1.1033852
1.6130813,1.1050365
1.6034806,1.1116526
1.5939372,1.1233233
1.5844505,1.1268386
1.5750202,1.1363539
1.5656462,1.1552249
1.5563277,1.1574727
1.5470649,1.1597059
1.5378572,1.1600342
1.5287046,1.1655533
1.5196058,1.1600993
1.5105615,1.1627157
1.5015709,1.1764524
1.4926344,1.1810617
1.4837507,1.180787
1.4749194,1.1878569
1.466141,1.1855522
1.4574152,1.1836755
1.4487412,1.1887562
1.4401187,1.2024333
1.4315474,1.2060797
1.4230273,1.2092158
1.4145577,1.2169694
1.4061385,1.2268399
1.3977697,1.2237879
1.3894506,1.2321612
1.3811809,1.2400645
1.3729603,1.2533113
1.3647891,1.2634772
