energy,intensity
97.76732,0.009558341
92.828835,0.009972908
88.18945,0.010571711
83.8307,0.01123407
79.735245,0.011893109
75.88682,0.012544118
72.27017,0.013513735
68.87099,0.014254576
65.67586,0.015136155
62.672165,0.015734047
59.848106,0.016707186
57.19261,0.017787846
54.69525,0.018892316
52.346306,0.020031596
50.136597,0.021044906
48.057564,0.022484565
46.10113,0.023281135
44.25976,0.024610918
42.52636,0.025477376
40.894283,0.026796252
39.357292,0.028045803
37.909534,0.0295194
36.545517,0.030601293
35.260098,0.031861138
34.04844,0.033421796
32.906017,0.03504587
31.828575,0.036369205
30.812122,0.03804066
29.85292,0.04004187
28.947456,0.042172965
28.092442,0.044025607
27.284779,0.045461986
26.521572,0.047482606
25.800108,0.04866957
25.117828,0.05030982
24.472345,0.051785253
23.861408,0.05387249
23.282911,0.056116126
22.734882,0.058523584
22.215462,0.061069477
21.722916,0.06439437
21.255604,0.06570754
20.812004,0.06780638
20.390675,0.070098385
19.990267,0.07222949
19.609518,0.073965445
19.247244,0.076603524
18.902327,0.07865487
18.573725,0.08141574
18.260456,0.08376754
17.961601,0.08617272
17.676302,0.08908462
17.403744,0.091440104
17.143167,0.09342342
16.893862,0.09643663
16.655159,0.09930219
16.426428,0.101790845
16.207083,0.10455839
15.996571,0.1073426
15.794373,0.10959093
15.6,0.1119812
15.412999,0.11414132
15.232939,0.116492294
15.05942,0.11928215
14.892062,0.121891335
14.730514,0.12441206
14.574441,0.12758912
14.423531,0.12993166
14.277491,0.13171875
14.136047,0.13421904
13.998942,0.13662367
13.865933,0.13903478
13.73679,0.14145276
13.611302,0.1441983
13.48927,0.14625698
13.3705015,0.14918663
13.254824,0.1521333
13.142069,0.15526322
13.032082,0.15835792
12.924716,0.16001073
12.819836,0.16222672
12.717309,0.16370603
12.617017,0.16598642
12.518845,0.1676944
12.422684,0.17016236
12.328438,0.17275995
12.23601,0.17531207
12.145311,0.17745888
12.056257,0.18021625
11.968773,0.18220139
11.882783,0.18425372
11.798219,0.18575916
11.7150135,0.18844311
11.633108,0.18976988
11.552444,0.19140944
11.472969,0.1938121
11.394629,0.19654761
11.317378,0.1984029
11.241171,0.19981256
11.165965,0.20180912
11.091721,0.20433924
11.018401,0.20464376
10.945969,0.2070601
10.874393,0.2090244
10.803641,0.21019146
10.733684,0.21156141
10.664492,0.2130022
10.596042,0.2152011
10.528306,0.21734488
10.461264,0.21957132
10.394891,0.22125295
10.329167,0.22273108
10.264075,0.2234356
10.199594,0.22506192
10.135705,0.22626546
10.072394,0.22617266
10.0096445,0.2280987
9.947442,0.22945197
9.885775,0.23051575
9.824624,0.23320794
9.763982,0.23413542
9.703834,0.23476288
9.64417,0.23576319
9.584979,0.23593025
9.526253,0.23639305
9.467979,0.23700377
9.410151,0.2390008
9.3527565,0.24093363
9.295791,0.24194106
9.239244,0.24287124
9.183109,0.24467242
9.12738,0.24600708
9.07205,0.24614577
9.01711,0.24643672
8.962557,0.24728808
8.908382,0.24895506
8.854581,0.25046772
8.801149,0.25256625
8.74808,0.2539323
8.69537,0.2554716
8.643014,0.25626248
8.591007,0.25722167
8.539344,0.2586928
8.48802,0.2611131
8.437034,0.26079625
8.38638,0.2613317
8.336055,0.2635196
8.286055,0.26607436
8.236377,0.26812035
8.187016,0.26982564
8.13797,0.27100536
8.089236,0.2734465
8.04081,0.27364743
7.9926906,0.27456754
7.9448724,0.2757628
7.8973556,0.2762258
7.850135,0.27659148
7.80321,0.27778915
7.7565756,0.28030246
7.710231,0.28302398
7.664174,0.28481954
7.6184006,0.28500473
7.57291,0.2859491
7.5276995,0.28506008
7.482766,0.28580073
7.4381084,0.28644198
7.3937244,0.28943914
7.349611,0.28939673
7.3057675,0.29371956
7.2621903,0.29498172
7.218879,0.29574496
7.175831,0.29529127
7.133044,0.29675695
7.090517,0.29658958
7.0482473,0.29919308
7.0062337,0.3015058
6.9644732,0.30268764
6.9229665,0.30408257
6.881709,0.30770072
6.840701,0.30614603
6.79994,0.30733997
6.7594247,0.3082146
6.719154,0.30887222
6.679125,0.30996177
6.6393356,0.31160045
6.599786,0.31269702
6.560474,0.31556767
6.5213976,0.31523004
6.482556,0.31756717
6.443947,0.31529745
6.4055705,0.31661922
6.367422,0.31611958
6.3295035,0.31571725
6.291812,0.31633812
6.254346,0.3191626
6.217103,0.3190875
6.1800838,0.31970546
6.1432858,0.32162052
6.106708,0.32069105
6.0703483,0.32057694
6.034206,0.32273787
5.9982805,0.3224902
5.9625683,0.32515293
5.92707,0.32599694
5.891784,0.32807264
5.856708,0.32991344
5.8218417,0.33338705
5.787183,0.33701602
5.752732,0.3384027
5.718485,0.3391586
5.684444,0.34042266
5.650605,0.34297568
5.616968,0.34477085
5.583532,0.3478766
5.550295,0.3499598
5.5172563,0.3511335
5.4844136,0.35310373
5.4517684,0.35441834
5.419316,0.3553339
5.387058,0.35651743
5.3549924,0.35715955
5.3231173,0.3592983
5.2914324,0.36048847
5.2599363,0.36375225
5.228627,0.36412364
5.1975055,0.36588457
5.166569,0.36666888
5.135817,0.36858147
5.105248,0.37078843
5.0748606,0.37429732
5.044654,0.37697074
5.0146275,0.37937284
4.9847803,0.3791662
4.955111,0.37923673
4.9256177,0.38032728
4.8963003,0.38022998
4.867158,0.382208
4.8381886,0.3852475
4.809392,0.38649657
4.7807665,0.3854668
4.7523127,0.3877747
4.724026,0.38917366
4.695909,0.39057544
4.667959,0.3921357
4.640177,0.39589304
4.612559,0.39700308
4.585105,0.39858776
4.557816,0.40161198
4.530688,0.4062621
4.5037217,0.40546766
4.4769163,0.40594763
4.450271,0.40756172
4.423784,0.41065902
4.3974533,0.41295272
4.3712807,0.41309792
4.345264,0.41657472
4.3194017,0.41688186
4.293693,0.41480842
4.2681384,0.41729203
4.2427354,0.41910547
4.217483,0.41903037
4.192381,0.42535257
4.16743,0.4275505
4.142626,0.42800555
4.11797,0.42915648
4.09346,0.43350124
4.069097,0.43716827
4.0448785,0.43763
4.0208044,0.4407924
3.9968739,0.44106817
3.9730854,0.44316024
3.949438,0.4472856
3.925932,0.44774255
3.9025662,0.4493061
3.8793387,0.45087242
3.85625,0.45319504
3.8332987,0.45647725
3.8104842,0.461308
3.7878044,0.46272722
3.7652605,0.46665564
3.742851,0.46789646
3.7205741,0.46679178
3.6984303,0.4691937
3.6764178,0.47437486
3.6545374,0.47622085
3.632786,0.47827205
3.6111646,0.4813369
3.5896719,0.48097998
3.5683074,0.48100868
3.5470698,0.4824546
3.525958,0.48637375
3.5049734,0.49011508
3.484112,0.490964
3.4633756,0.4943232
3.4427624,0.49643856
3.4222722,0.49941093
3.4019039,0.5000514
3.3816562,0.50433475
3.3615294,0.50713825
3.3415227,0.5112619
3.321635,0.5173858
3.3018653,0.5207037
3.2822137,0.52559245
3.2626784,0.5285167
3.24326,0.5278722
3.2239568,0.52539796
3.2047691,0.5255959
3.1856952,0.5255494
3.1667347,0.5305318
3.1478868,0.53670937
3.1291518,0.53620714
3.1105278,0.5389505
3.0920146,0.5464076
3.0736122,0.554171
3.0553188,0.5546351
3.037134,0.5636982
3.0190578,0.5608153
3.0010896,0.55666673
2.9832275,0.55561525
2.9654722,0.55894196
2.9478228,0.5613025
2.930278,0.5659031
2.9128375,0.5655495
2.895501,0.5737039
2.878268,0.5758766
2.8611374,0.5752609
2.8441086,0.5764056
2.8271809,0.5819131
2.8103547,0.58436286
2.7936282,0.5865611
2.7770011,0.58850294
2.7604735,0.5912367
2.7440438,0.59318787
2.7277122,0.59567386
2.711477,0.59763247
2.6953394,0.60094106
2.6792972,0.6031831
2.663351,0.60624886
2.6474993,0.61372125
2.631742,0.6160153
2.6160786,0.6219257
2.6005085,0.6236934
2.5850313,0.6299577
2.5696461,0.62750804
2.5543516,0.6326877
2.5391486,0.6281765
2.524037,0.630498
2.5090146,0.6307975
2.4940815,0.63311756
2.4792366,0.63427055
2.4644816,0.63394
2.4498136,0.6368457
2.4352329,0.6433444
2.420739,0.64569545
2.4063315,0.65620494
2.3920097,0.66469073
2.377773,0.6662257
2.363621,0.6662179
2.3495533,0.66896975
2.3355696,0.6602188
2.3216686,0.6663627
2.3078513,0.6772793
2.294115,0.67816705
2.280461,0.6857327
2.2668889,0.6962495
2.253397,0.6917113
2.2399855,0.68384975
2.2266536,0.6902286
2.213401,0.69074994
2.2002275,0.6945556
2.1871324,0.7003753
2.174115,0.7022291
2.1611753,0.7047524
2.1483126,0.7055895
2.1355262,0.70232815
2.1228166,0.7065331
2.1101818,0.7059424
2.0976226,0.71016914
2.0851378,0.71372426
2.0727284,0.72045135
2.060392,0.72123826
2.0481286,0.7241376
2.0359385,0.7227626
2.0238216,0.7267308
2.0117764,0.73361045
1.9998028,0.7427267
1.9879006,0.7504635
1.9760691,0.75900185
1.9643079,0.7628065
1.9526169,0.75658125
1.9409955,0.7547468
1.9294431,0.76303196
1.9179596,0.7657061
1.9065444,0.76838493
1.8951972,0.7783536
1.8839173,0.7837852
1.8727047,0.77994144
1.8615594,0.7799268
1.8504798,0.7889161
1.8394659,0.7833687
1.8285179,0.78567463
1.8176354,0.7899788
1.8068173,0.8027523
1.7960637,0.8099861
1.7853739,0.8152429
1.7747478,0.8262658
1.7641851,0.83327246
1.753685,0.835361
1.7432475,0.8395289
1.7328722,0.85126495
1.7225585,0.8521433
1.7123064,0.8521528
1.7021154,0.8470088
1.6919845,0.8525097
1.6819143,0.8450848
1.6719041,0.8488406
1.6619537,0.85698336
1.6520622,0.85595644
1.6422291,0.85709924
1.6324553,0.86490166
1.6227394,0.8664978
1.6130813,0.87033445
1.6034806,0.8764517
1.5939372,0.8858024
1.5844505,0.8878956
1.5750202,0.8918277
1.5656462,0.9050577
1.5563277,0.91187745
1.5470649,0.9178068
1.5378572,0.92093956
1.5287046,0.92312586
1.5196058,0.9176547
1.5105615,0.9202627
1.5015709,0.92819244
1.4926344,0.93082845
1.4837507,0.9305247
1.4749194,0.93363297
1.466141,0.9332754
1.4574152,0.9318827
1.4487412,0.93344945
1.4401187,0.94004756
1.4315474,0.93806183
1.4230273,0.94776344
1.4145577,0.95086974
1.4061385,0.9565629
1.3977697,0.95761126
1.3894506,0.96491396
1.3811809,0.96753454
1.3729603,0.9749152
1.3647891,0.97755766
