energy,intensity
97.76732,0.00839142
92.828835,0.008845671
88.18945,0.009352214
83.8307,0.009994509
79.735245,0.010516972
75.88682,0.011088619
72.27017,0.011784299
68.87099,0.012450332
65.67586,0.013122427
62.672165,0.013704969
59.848106,0.014412375
57.19261,0.015272135
54.69525,0.0162086
52.346306,0.016991459
50.136597,0.01775483
48.057564,0.018885823
46.10113,0.01975035
44.25976,0.020949654
42.52636,0.021752315
40.894283,0.023082446
39.357292,0.024186961
37.909534,0.0255707
36.545517,0.026564866
35.260098,0.027595123
34.04844,0.028854575
32.906017,0.030342171
31.828575,0.032008555
30.812122,0.03339465
29.85292,0.03495448
28.947456,0.03642439
28.092442,0.038153794
27.284779,0.039363094
26.521572,0.041016426
25.800108,0.04247321
25.117828,0.043771565
24.472345,0.045371484
23.861408,0.046837695
23.282911,0.048500814
22.734882,0.04998956
22.215462,0.05227051
21.722916,0.05412472
21.255604,0.055724908
20.812004,0.05691268
20.390675,0.058587573
19.990267,0.060270004
19.609518,0.061699636
19.247244,0.0636538
18.902327,0.065507285
18.573725,0.067839935
18.260456,0.069680266
17.961601,0.07160832
17.676302,0.07387406
17.403744,0.075323254
17.143167,0.07693445
16.893862,0.078887045
16.655159,0.081064776
16.426428,0.08268019
16.207083,0.08429237
15.996571,0.08631018
15.794373,0.0885193
15.6,0.09055386
15.412999,0.091982536
15.232939,0.094644025
15.05942,0.09645835
14.892062,0.09846948
14.730514,0.100388005
14.574441,0.10191176
14.423531,0.103481844
14.277491,0.10545646
14.136047,0.107128486
13.998942,0.10848917
13.865933,0.110001504
13.73679,0.11161754
13.611302,0.11344739
13.48927,0.114904664
13.3705015,0.116957985
13.254824,0.11891067
13.142069,0.12087087
13.032082,0.12177949
12.924716,0.12172286
12.819836,0.12209518
12.717309,0.12296524
12.617017,0.123827495
12.518845,0.12479855
12.422684,0.12658352
12.328438,0.12761012
12.23601,0.12904915
12.145311,0.1302522
12.056257,0.13109377
11.968773,0.13235556
11.882783,0.1345364
11.798219,0.13519272
11.7150135,0.13652512
11.633108,0.13823594
11.552444,0.13964145
11.472969,0.14067212
11.394629,0.14265963
11.317378,0.14466073
11.241171,0.14609393
11.165965,0.14753345
11.091721,0.14891407
11.018401,0.14944336
10.945969,0.15136167
10.874393,0.15356077
10.803641,0.15483549
10.733684,0.15665701
10.664492,0.1583548
10.596042,0.16006355
10.528306,0.16164553
10.461264,0.16344553
10.394891,0.1649086
10.329167,0.1665207
10.264075,0.16750593
10.199594,0.16991855
10.135705,0.17041606
10.072394,0.17177577
10.0096445,0.17423198
9.947442,0.17583284
9.885775,0.17847328
9.824624,0.18061963
9.763982,0.18315546
9.703834,0.18354191
9.64417,0.18482809
9.584979,0.18650016
9.526253,0.1874973
9.467979,0.18811408
9.410151,0.18996513
9.3527565,0.1918301
9.295791,0.19238028
9.239244,0.19300716
9.183109,0.19482002
9.12738,0.19648722
9.07205,0.19688459
9.01711,0.19872886
8.962557,0.20115466
8.908382,0.20197007
8.854581,0.20385382
8.801149,0.20566937
8.74808,0.2073324
8.69537,0.20700136
8.643014,0.20749862
8.591007,0.20926225
8.539344,0.21010283
8.48802,0.2110308
8.437034,0.21196155
8.38638,0.21272187
8.336055,0.21479066
8.286055,0.21617448
8.236377,0.21791944
8.187016,0.22065349
8.13797,0.22144756
8.089236,0.22269185
8.04081,0.22285816
7.9926906,0.22356346
7.9448724,0.22417732
7.8973556,0.22589418
7.850135,0.22623475
7.80321,0.2277815
7.7565756,0.23036888
7.710231,0.23241329
7.664174,0.23447363
7.6184006,0.2365501
7.57291,0.23825893
7.5276995,0.23698695
7.482766,0.23870139
7.4381084,0.23935297
7.3937244,0.2412812
7.349611,0.24183956
7.3057675,0.24458393
7.2621903,0.24485084
7.218879,0.24662185
7.175831,0.24698742
7.133044,0.24806146
7.090517,0.2492418
7.0482473,0.25063348
7.0062337,0.2537959
6.9644732,0.25594375
6.9229665,0.25726834
6.881709,0.25859955
6.840701,0.25993732
6.79994,0.25946507
6.7594247,0.2615578
6.719154,0.26334172
6.679125,0.26546395
6.6393356,0.26705486
6.599786,0.2682148
6.560474,0.26993275
6.5213976,0.26898736
6.482556,0.2710474
6.443947,0.27097988
6.4055705,0.2710152
6.367422,0.27195415
6.3295035,0.27151686
6.291812,0.27348986
6.254346,0.27617386
6.217103,0.2775945
6.1800838,0.27878696
6.1432858,0.28033862
6.106708,0.28023282
6.0703483,0.28071427
6.034206,0.28239566
5.9982805,0.28372356
5.9625683,0.28530103
5.92707,0.28725493
5.891784,0.28983864
5.856708,0.2915745
5.8218417,0.29456887
5.787183,0.2960819
5.752732,0.29709715
5.718485,0.29760566
5.684444,0.29913217
5.650605,0.30118072
5.616968,0.3023375
5.583532,0.30570978
5.550295,0.3072786
5.5172563,0.31017235
5.4844136,0.3109698
5.4517684,0.31283185
5.419316,0.3140348
5.387058,0.3152408
5.3549924,0.31685698
5.3231173,0.31738925
5.2914324,0.31832844
5.2599363,0.31802416
5.228627,0.32020643
5.1975055,0.32184416
5.166569,0.32250544
5.135817,0.32415354
5.105248,0.32766026
5.0748606,0.33105415
5.044654,0.3356293
5.0146275,0.33705932
4.9847803,0.33776554
4.955111,0.3370016
4.9256177,0.33946204
4.8963003,0.3394169
4.867158,0.34055334
4.8381886,0.34259245
4.809392,0.34252843
4.7807665,0.3436674
4.7523127,0.34648955
4.724026,0.34687218
4.695909,0.34802064
4.667959,0.3504158
4.640177,0.35267046
4.612559,0.35367933
4.585105,0.3548461
4.557816,0.35920277
4.530688,0.35958928
4.5037217,0.35948348
4.4769163,0.3596881
4.450271,0.36151507
4.423784,0.36269408
4.3974533,0.36453527
4.3712807,0.36588672
4.345264,0.36540172
4.3194017,0.36725307
4.293693,0.3669134
4.2681384,0.36808866
4.2427354,0.37132022
4.217483,0.37423274
4.192381,0.37855345
4.16743,0.38012236
4.142626,0.380118
4.11797,0.37868825
4.09346,0.38166577
4.069097,0.3791292
4.0448785,0.38283643
4.0208044,0.38422498
3.9968739,0.3856164
3.9730854,0.3881082
3.949438,0.3935598
3.925932,0.39350998
3.9025662,0.39493507
3.8793387,0.39729974
3.85625,0.39835936
3.8332987,0.4026402
3.8104842,0.40695792
3.7878044,0.41073757
3.7652605,0.41281074
3.742851,0.41644725
3.7205741,0.4177689
3.6984303,0.42223507
3.6764178,0.42239127
3.6545374,0.42332953
3.632786,0.4278645
3.6111646,0.42942008
3.5896719,0.43199128
3.5683074,0.43457776
3.5470698,0.43676996
3.525958,0.43443894
3.5049734,0.43455204
3.484112,0.43590266
3.4633756,0.43746343
3.4427624,0.44050485
3.4222722,0.4425053
3.4019039,0.44771796
3.3816562,0.45190287
3.3615294,0.45417625
3.3415227,0.4553733
3.321635,0.4602874
3.3018653,0.46370357
3.2822137,0.46470875
3.2626784,0.46726847
3.24326,0.47096238
3.2239568,0.47152823
3.2047691,0.47389793
3.1856952,0.47536668
3.1667347,0.47844237
3.1478868,0.4824612
3.1291518,0.4851176
3.1105278,0.4877886
3.0920146,0.49493948
3.0736122,0.5023948
3.0553188,0.502311
3.037134,0.5077112
3.0190578,0.50714064
3.0010896,0.50799775
2.9832275,0.50665486
2.9654722,0.50968844
2.9478228,0.51027495
2.930278,0.5123382
2.9128375,0.5141585
2.895501,0.516986
2.878268,0.51907146
2.8611374,0.5198935
2.8441086,0.5224953
2.8271809,0.526652
2.8103547,0.5321322
2.7936282,0.5358385
2.7770011,0.53852344
2.7604735,0.54332715
2.7440438,0.54287285
2.7277122,0.54319274
2.711477,0.5475172
2.6953394,0.5491776
2.6792972,0.55138093
2.663351,0.55550075
2.6474993,0.56184596
2.631742,0.5599637
2.6160786,0.5691496
2.6005085,0.5703219
2.5850313,0.57289314
2.5696461,0.57434374
2.5543516,0.5783516
2.5391486,0.57666314
2.524037,0.5778125
2.5090146,0.5815617
2.4940815,0.58475244
2.4792366,0.5864951
2.4644816,0.5897116
2.4498136,0.5926492
2.4352329,0.5991816
2.420739,0.60336953
2.4063315,0.6109078
2.3920097,0.6172997
2.377773,0.62007886
2.363621,0.6173353
2.3495533,0.6197944
2.3355696,0.6213274
2.3216686,0.6247346
2.3078513,0.6287898
2.294115,0.63192123
2.280461,0.6347488
2.2668889,0.640152
2.253397,0.63947016
2.2399855,0.63713515
2.2266536,0.6448661
2.213401,0.64741397
2.2002275,0.6539325
2.1871324,0.6591767
2.174115,0.6644605
2.1611753,0.66507643
2.1483126,0.6670289
2.1355262,0.6679603
2.1228166,0.66887873
2.1101818,0.6704731
2.0976226,0.6737946
2.0851378,0.6760864
2.0727284,0.6804847
2.060392,0.68738055
2.0481286,0.69327027
2.0359385,0.69599354
2.0238216,0.69836533
2.0117764,0.701463
1.9998028,0.7103868
1.9879006,0.7142745
1.9760691,0.7181834
1.9643079,0.7250731
1.9526169,0.718622
1.9409955,0.7150627
1.9294431,0.7227336
1.9179596,0.72289336
1.9065444,0.72645915
1.8951972,0.7365602
1.8839173,0.7428989
1.8727047,0.7380341
1.8615594,0.74479496
1.8504798,0.7512178
1.8394659,0.74662983
1.8285179,0.7495105
1.8176354,0.7575961
1.8068173,0.7637407
1.7960637,0.76588607
1.7853739,0.7708787
1.7747478,0.77876985
1.7641851,0.7821969
1.753685,0.78397965
1.7432475,0.7895073
1.7328722,0.8047179
1.7225585,0.80489576
1.7123064,0.80759305
1.7021154,0.8098668
1.6919845,0.8155748
1.6819143,0.81527346
1.6719041,0.8201548
1.6619537,0.82506526
1.6520622,0.8229674
1.6422291,0.8234703
1.6324553,0.8275102
1.6227394,0.83022577
1.6130813,0.8356471
1.6034806,0.8433696
1.5939372,0.84887505
1.5844505,0.8493713
1.5750202,0.8535341
1.5656462,0.86607045
1.5563277,0.87125605
1.5470649,0.872715
1.5378572,0.8732151
1.5287046,0.8798691
1.5196058,0.8760519
1.5105615,0.880816
1.5015709,0.8899614
1.4926344,0.89675015
1.4837507,0.8962423
1.4749194,0.90013057
1.466141,0.89957255
1.4574152,0.9014681
1.4487412,0.9048592
1.4401187,0.90825856
1.4315474,0.9116662
1.4230273,0.9171246
1.4145577,0.9195336
1.4061385,0.9302071
1.3977697,0.93265724
1.3894506,0.9382413
1.3811809,0.9428067
1.3729603,0.9479226
1.3647891,0.953598
