energy,intensity
97.76732,0.016545
92.828835,0.018067088
88.18945,0.018918667
83.8307,0.02068248
79.735245,0.02183593
75.88682,0.023441225
72.27017,0.025076827
68.87099,0.027074197
65.67586,0.028856063
62.672165,0.030494135
59.848106,0.032370172
57.19261,0.034483008
54.69525,0.03680149
52.346306,0.038786054
50.136597,0.041655008
48.057564,0.044122364
46.10113,0.046373118
44.25976,0.048663612
42.52636,0.051740773
40.894283,0.053734653
39.357292,0.05605467
37.909534,0.058272064
36.545517,0.061480958
35.260098,0.064752705
34.04844,0.068209484
32.906017,0.07221172
31.828575,0.07593471
30.812122,0.07933588
29.85292,0.08154423
28.947456,0.084998615
28.092442,0.0872752
27.284779,0.08943254
26.521572,0.093102075
25.800108,0.09609986
25.117828,0.099693865
24.472345,0.10327357
23.861408,0.10652684
23.282911,0.110172376
22.734882,0.11225277
22.215462,0.11448483
21.722916,0.11694686
21.255604,0.12033848
20.812004,0.12339226
20.390675,0.12587062
19.990267,0.12904614
19.609518,0.13170001
19.247244,0.13365032
18.902327,0.13501267
18.573725,0.13677531
18.260456,0.13928095
17.961601,0.14119379
17.676302,0.14265051
17.403744,0.14496805
17.143167,0.14606947
16.893862,0.14693464
16.655159,0.1493023
16.426428,0.15173517
16.207083,0.15343006
15.996571,0.15590344
15.794373,0.15753122
15.6,0.15893504
15.412999,0.16208917
15.232939,0.16400513
15.05942,0.16454376
14.892062,0.16610011
14.730514,0.16673782
14.574441,0.16613011
14.423531,0.1655508
14.277491,0.16602263
14.136047,0.165422
13.998942,0.16465437
13.865933,0.16749154
13.73679,0.16980678
13.611302,0.17030457
13.48927,0.17119879
13.3705015,0.17250215
13.254824,0.17214364
13.142069,0.17030297
13.032082,0.16973291
12.924716,0.1696811
12.819836,0.1680084
12.717309,0.16673443
12.617017,0.16829017
12.518845,0.16821682
12.422684,0.16940194
12.328438,0.16975386
12.23601,0.16984841
12.145311,0.16740726
12.056257,0.16599181
11.968773,0.16514085
11.882783,0.16462362
11.798219,0.16531083
11.7150135,0.16747741
11.633108,0.16903138
11.552444,0.16832456
11.472969,0.16974393
11.394629,0.1693804
11.317378,0.17027973
11.241171,0.16910696
11.165965,0.1715475
11.091721,0.16837186
11.018401,0.16672233
10.945969,0.16795835
10.874393,0.1697321
10.803641,0.16936389
10.733684,0.17155093
10.664492,0.17375419
10.596042,0.17309359
10.528306,0.17130837
10.461264,0.1712948
10.394891,0.16833399
10.329167,0.16870156
10.264075,0.16807231
10.199594,0.16827992
10.135705,0.1661861
10.072394,0.16492204
10.0096445,0.16915022
9.947442,0.16553268
9.885775,0.16436009
9.824624,0.16405176
9.763982,0.16492179
9.703834,0.16699243
9.64417,0.16742276
9.584979,0.1704278
9.526253,0.1711733
9.467979,0.1720733
9.410151,0.17127746
9.3527565,0.17155156
9.295791,0.17041406
9.239244,0.17208621
9.183109,0.16854858
9.12738,0.16527852
9.07205,0.16420399
9.01711,0.16665503
8.962557,0.17075038
8.908382,0.16966793
8.854581,0.17135538
8.801149,0.1725608
8.74808,0.16962045
8.69537,0.1676402
8.643014,0.16848753
8.591007,0.17018417
8.539344,0.17019263
8.48802,0.16985194
8.437034,0.17191193
8.38638,0.17450994
8.336055,0.17608652
8.286055,0.17434275
8.236377,0.174512
8.187016,0.17325647
8.13797,0.17287196
8.089236,0.17139815
8.04081,0.17496082
7.9926906,0.17474133
7.9448724,0.17835405
7.8973556,0.17869106
7.850135,0.17735916
7.80321,0.17432827
7.7565756,0.17425217
7.710231,0.17021021
7.664174,0.17085382
7.6184006,0.17397879
7.57291,0.17617534
7.5276995,0.17761958
7.482766,0.18082263
7.4381084,0.17878202
7.3937244,0.17671023
7.349611,0.17460698
7.3057675,0.17386447
7.2621903,0.17490776
7.218879,0.17696378
7.175831,0.17802538
7.133044,0.18337193
7.090517,0.18447176
7.0482473,0.18351607
7.0062337,0.18233477
6.9644732,0.18384546
6.9229665,0.18074912
6.881709,0.17718662
6.840701,0.17612424
6.79994,0.17931727
6.7594247,0.1808221
6.719154,0.18039177
6.679125,0.18147288
6.6393356,0.17796358
6.599786,0.17220357
6.560474,0.1781091
6.5213976,0.17605634
6.482556,0.17845638
6.443947,0.18065326
6.4055705,0.18559265
6.367422,0.1878458
6.3295035,0.1960891
6.291812,0.19772579
6.254346,0.19588938
6.217103,0.19379017
6.1800838,0.19495097
6.1432858,0.19588217
6.106708,0.1977694
6.0703483,0.20422116
6.034206,0.20399924
5.9982805,0.2061902
5.9625683,0.20571896
5.92707,0.20547986
5.891784,0.20350373
5.856708,0.20943734
5.8218417,0.20894417
5.787183,0.2074331
5.752732,0.20337005
5.718485,0.20128408
5.684444,0.20274512
5.650605,0.2029305
5.616968,0.20259328
5.583532,0.21031372
5.550295,0.21628642
5.5172563,0.22232309
5.4844136,0.22762933
5.4517684,0.22979215
5.419316,0.22580464
5.387058,0.22230072
5.3549924,0.22200343
5.3231173,0.22142164
5.2914324,0.22055025
5.2599363,0.22601542
5.228627,0.22653492
5.1975055,0.22118048
5.166569,0.22194228
5.135817,0.22298822
5.105248,0.22090733
5.0748606,0.2233756
5.044654,0.23018694
5.0146275,0.22431977
4.9847803,0.2239136
4.955111,0.23405328
4.9256177,0.23958552
4.8963003,0.2362709
4.867158,0.23589401
4.8381886,0.23850799
4.809392,0.23570552
4.7807665,0.23498884
4.7523127,0.23670161
4.724026,0.2335042
4.695909,0.23242643
4.667959,0.22883666
4.640177,0.2330256
4.612559,0.2372566
4.585105,0.23836026
4.557816,0.24393265
4.530688,0.245714
4.5037217,0.23944049
4.4769163,0.23145993
4.450271,0.23807089
4.423784,0.23686811
4.3974533,0.23828642
4.3712807,0.24237294
4.345264,0.24549644
4.3194017,0.23922758
4.293693,0.2437063
4.2681384,0.23937683
4.2427354,0.23635694
4.217483,0.23915055
4.192381,0.24612904
4.16743,0.25178748
4.142626,0.2610132
4.11797,0.26292893
4.09346,0.2645032
4.069097,0.26858702
4.0448785,0.26121265
4.0208044,0.259885
3.9968739,0.2596229
3.9730854,0.25349572
3.949438,0.2531736
3.925932,0.25691053
3.9025662,0.25100067
3.8793387,0.25325277
3.85625,0.26004538
3.8332987,0.2650146
3.8104842,0.2681269
3.7878044,0.27433658
3.7652605,0.2771371
3.742851,0.27530175
3.7205741,0.27265328
3.6984303,0.27310684
3.6764178,0.2790905
3.6545374,0.27758005
3.632786,0.2780419
3.6111646,0.28453612
3.5896719,0.2878592
3.5683074,0.2859171
3.5470698,0.2847609
3.525958,0.2905877
3.5049734,0.28735167
3.484112,0.288238
3.4633756,0.28534785
3.4427624,0.28705633
3.4222722,0.29387105
3.4019039,0.29306728
3.3816562,0.2952518
3.3615294,0.30436942
3.3415227,0.31315067
3.321635,0.31196284
3.3018653,0.32043302
3.2822137,0.31615248
3.2626784,0.30913666
3.24326,0.3056102
3.2239568,0.3051861
3.2047691,0.30474585
3.1856952,0.30657047
3.1667347,0.31207752
3.1478868,0.31486946
3.1291518,0.31396794
3.1105278,0.3139789
3.0920146,0.31585878
3.0736122,0.32058698
3.0553188,0.32250643
3.037134,0.32156628
3.0190578,0.32156613
3.0010896,0.3249442
2.9832275,0.32494116
2.9654722,0.32541645
2.9478228,0.3308159
2.930278,0.3372604
2.9128375,0.3412755
2.895501,0.34131116
2.878268,0.33982015
2.8611374,0.33271152
2.8441086,0.3367476
2.8271809,0.33413738
2.8103547,0.34389496
2.7936282,0.33763024
2.7770011,0.34697863
2.7604735,0.34326482
2.7440438,0.3458497
2.7277122,0.3468548
2.711477,0.34625167
2.6953394,0.3429327
2.6792972,0.3422739
2.663351,0.34705156
2.6474993,0.35297212
2.631742,0.35508552
2.6160786,0.36554462
2.6005085,0.37052754
2.5850313,0.37668148
2.5696461,0.3721498
2.5543516,0.36811954
2.5391486,0.36402756
2.524037,0.36851022
2.5090146,0.37477133
2.4940815,0.37818062
2.4792366,0.38103133
2.4644816,0.3921582
2.4498136,0.38501433
2.4352329,0.3825452
2.420739,0.385436
2.4063315,0.3823081
2.3920097,0.3845971
2.377773,0.38567746
2.363621,0.391061
2.3495533,0.39154676
2.3355696,0.39140204
2.3216686,0.3899896
2.3078513,0.39232457
2.294115,0.39404014
2.280461,0.3995859
2.2668889,0.4006961
2.253397,0.40760985
2.2399855,0.40745503
2.2266536,0.4085892
2.213401,0.40512624
2.2002275,0.40755183
2.1871324,0.41065645
2.174115,0.4157892
2.1611753,0.42164096
2.1483126,0.42822447
2.1355262,0.4335107
2.1228166,0.42925993
2.1101818,0.42838654
2.0976226,0.43164426
2.0851378,0.43213773
2.0727284,0.43472496
2.060392,0.44226542
2.0481286,0.44846144
2.0359385,0.44900507
2.0238216,0.45169336
2.0117764,0.4572874
1.9998028,0.45711842
1.9879006,0.4540066
1.9760691,0.4618732
1.9643079,0.46537852
1.9526169,0.4703978
1.9409955,0.4694705
1.9294431,0.47454113
1.9179596,0.48041335
1.9065444,0.49015036
1.8951972,0.48695025
1.8839173,0.500666
1.8727047,0.49435097
1.8615594,0.49418783
1.8504798,0.48929295
1.8394659,0.4977532
1.8285179,0.50391275
1.8176354,0.5093284
1.8068173,0.5163998
1.7960637,0.5186825
1.7853739,0.51690394
1.7747478,0.5175421
1.7641851,0.51899326
1.753685,0.51961446
1.7432475,0.52022445
1.7328722,0.5199845
1.7225585,0.52225417
1.7123064,0.52707857
1.7021154,0.531942
1.6919845,0.5385629
1.6819143,0.5469721
1.6719041,0.5450313
1.6619537,0.5465455
1.6520622,0.5454194
1.6422291,0.54691523
1.6324553,0.5519702
1.6227394,0.5552751
1.6130813,0.55950063
1.6034806,0.5610379
1.5939372,0.5598381
1.5844505,0.5531004
1.5750202,0.5573347
1.5656462,0.5634564
1.5563277,0.5705654
1.5470649,0.5739816
1.5378572,0.57458305
1.5287046,0.581826
1.5196058,0.5747895
1.5105615,0.5791931
1.5015709,0.5816931
1.4926344,0.58322835
1.4837507,0.58769983
1.4749194,0.6000871
1.466141,0.5977324
1.4574152,0.600314
1.4487412,0.6229685
1.4401187,0.6145883
1.4315474,0.6263898
1.4230273,0.63218284
1.4145577,0.64213246
1.4061385,0.62737304
1.3977697,0.63632804
1.3894506,0.6349081
1.3811809,0.64081407
1.3729603,0.6488851
1.3647891,0.6570295
