energy,intensity
97.76732,0.016485538
92.828835,0.017738312
88.18945,0.018490193
83.8307,0.02002369
79.735245,0.020888131
75.88682,0.022368753
72.27017,0.023628928
68.87099,0.025174996
65.67586,0.026289111
62.672165,0.027665023
59.848106,0.029140439
57.19261,0.030595094
54.69525,0.0322312
52.346306,0.033788566
50.136597,0.03591548
48.057564,0.037741408
46.10113,0.039752893
44.25976,0.041045558
42.52636,0.043060355
40.894283,0.044423494
39.357292,0.045235164
37.909534,0.046809338
36.545517,0.04891434
35.260098,0.051357012
34.04844,0.05369683
32.906017,0.05640022
31.828575,0.05935966
30.812122,0.060138673
29.85292,0.061292052
28.947456,0.06275739
28.092442,0.064098395
27.284779,0.06551639
26.521572,0.06794972
25.800108,0.069455534
25.117828,0.07192077
24.472345,0.07423345
23.861408,0.07582956
23.282911,0.07815061
22.734882,0.07971481
22.215462,0.080401056
21.722916,0.082826205
21.255604,0.08451042
20.812004,0.086800545
20.390675,0.08845155
19.990267,0.08993244
19.609518,0.091233924
19.247244,0.09227158
18.902327,0.09303264
18.573725,0.093113616
18.260456,0.094790615
17.961601,0.09604415
17.676302,0.09627882
17.403744,0.097870134
17.143167,0.09927298
16.893862,0.09961962
16.655159,0.10087285
16.426428,0.10227746
16.207083,0.10204758
15.996571,0.1037539
15.794373,0.10351789
15.6,0.104621366
15.412999,0.105890706
15.232939,0.10847809
15.05942,0.1098245
14.892062,0.11125388
14.730514,0.11030346
14.574441,0.10899172
14.423531,0.10922523
14.277491,0.10922275
14.136047,0.108567834
13.998942,0.109838784
13.865933,0.11173093
13.73679,0.11225234
13.611302,0.11296691
13.48927,0.115604974
13.3705015,0.11793625
13.254824,0.11929444
13.142069,0.11888032
13.032082,0.11854541
12.924716,0.11739369
12.819836,0.11676697
12.717309,0.115765594
12.617017,0.116801
12.518845,0.11713648
12.422684,0.11862816
12.328438,0.118474066
12.23601,0.11960654
12.145311,0.118704796
12.056257,0.1195816
11.968773,0.11899855
11.882783,0.11888125
11.798219,0.11788559
11.7150135,0.11859883
11.633108,0.11955877
11.552444,0.11963876
11.472969,0.12034085
11.394629,0.12040293
11.317378,0.11955538
11.241171,0.118426576
11.165965,0.121827364
11.091721,0.120415345
11.018401,0.120029524
10.945969,0.1217532
10.874393,0.12322281
10.803641,0.12255005
10.733684,0.12497356
10.664492,0.12564811
10.596042,0.1254997
10.528306,0.12534083
10.461264,0.12517163
10.394891,0.124153316
10.329167,0.12466188
10.264075,0.12431971
10.199594,0.123253286
10.135705,0.12216614
10.072394,0.12250117
10.0096445,0.12355951
9.947442,0.12301723
9.885775,0.123931624
9.824624,0.12144859
9.763982,0.12294712
9.703834,0.12640505
9.64417,0.12718704
9.584979,0.13055012
9.526253,0.13089724
9.467979,0.12940039
9.410151,0.12803338
9.3527565,0.1299068
9.295791,0.13101557
9.239244,0.13323312
9.183109,0.13151537
9.12738,0.13072608
9.07205,0.12976119
9.01711,0.13184121
8.962557,0.13442743
8.908382,0.13622376
8.854581,0.13787214
8.801149,0.13986507
8.74808,0.14071354
8.69537,0.13738808
8.643014,0.13704327
8.591007,0.14057955
8.539344,0.14125988
8.48802,0.14091548
8.437034,0.14383411
8.38638,0.14608927
8.336055,0.14836596
8.286055,0.14943662
8.236377,0.14874989
8.187016,0.14609638
8.13797,0.14697687
8.089236,0.14642504
8.04081,0.14929509
7.9926906,0.15346691
7.9448724,0.15695156
7.8973556,0.15734382
7.850135,0.15717946
7.80321,0.15439972
7.7565756,0.15514064
7.710231,0.15305725
7.664174,0.15397702
7.6184006,0.15604676
7.57291,0.15775178
7.5276995,0.16062987
7.482766,0.16353668
7.4381084,0.16158769
7.3937244,0.16098519
7.349611,0.16036949
7.3057675,0.16053617
7.2621903,0.16129938
7.218879,0.16367638
7.175831,0.16283551
7.133044,0.16747971
7.090517,0.16807425
7.0482473,0.16949466
7.0062337,0.1673995
6.9644732,0.16485575
6.9229665,0.16437462
6.881709,0.1634594
6.840701,0.16146496
6.79994,0.16115046
6.7594247,0.1606113
6.719154,0.16135763
6.679125,0.16254225
6.6393356,0.16264078
6.599786,0.16339521
6.560474,0.16548195
6.5213976,0.16647354
6.482556,0.16881613
6.443947,0.17140636
6.4055705,0.17424834
6.367422,0.17415105
6.3295035,0.1793274
6.291812,0.18224958
6.254346,0.18124998
6.217103,0.17999811
6.1800838,0.18084116
6.1432858,0.18310726
6.106708,0.184442
6.0703483,0.18746208
6.034206,0.18689895
5.9982805,0.18826064
5.9625683,0.18719451
5.92707,0.18905126
5.891784,0.1882101
5.856708,0.18958545
5.8218417,0.18872379
5.787183,0.187845
5.752732,0.18391725
5.718485,0.18273139
5.684444,0.18331435
5.650605,0.18749851
5.616968,0.18706891
5.583532,0.19027147
5.550295,0.1942912
5.5172563,0.19808882
5.4844136,0.19980502
5.4517684,0.20180121
5.419316,0.19791429
5.387058,0.19694117
5.3549924,0.19839182
5.3231173,0.19466542
5.2914324,0.19308445
5.2599363,0.2019771
5.228627,0.20068493
5.1975055,0.19853117
5.166569,0.20168896
5.135817,0.20006685
5.105248,0.19642533
5.0748606,0.19931978
5.044654,0.20397039
5.0146275,0.19736661
4.9847803,0.19942307
4.955111,0.20355013
4.9256177,0.20712936
4.8963003,0.20391726
4.867158,0.20692983
4.8381886,0.20576572
4.809392,0.20941527
4.7807665,0.20854118
4.7523127,0.20703745
4.724026,0.20520067
4.695909,0.20426294
4.667959,0.20081584
4.640177,0.20327099
4.612559,0.20637861
4.585105,0.2066634
4.557816,0.21332149
4.530688,0.21524031
4.5037217,0.21136597
4.4769163,0.2080867
4.450271,0.21129203
4.423784,0.21452829
4.3974533,0.21614328
4.3712807,0.2177699
4.345264,0.2187393
4.3194017,0.21365614
4.293693,0.21730478
4.2681384,0.21281724
4.2427354,0.2140915
4.217483,0.21847472
4.192381,0.22428946
4.16743,0.2245861
4.142626,0.23399976
4.11797,0.23469496
4.09346,0.24000558
4.069097,0.24037114
4.0448785,0.23785801
4.0208044,0.2436196
3.9968739,0.24071486
3.9730854,0.23886392
3.949438,0.2377182
3.925932,0.24136266
3.9025662,0.23722169
3.8793387,0.24088986
3.85625,0.24082465
3.8332987,0.24340394
3.8104842,0.24600554
3.7878044,0.24479267
3.7652605,0.24471441
3.742851,0.24540296
3.7205741,0.24218485
3.6984303,0.24835041
3.6764178,0.2526046
3.6545374,0.25451463
3.632786,0.258839
3.6111646,0.2611937
3.5896719,0.26235268
3.5683074,0.26392347
3.5470698,0.2687815
3.525958,0.26668122
3.5049734,0.26413137
3.484112,0.26654714
3.4633756,0.26646453
3.4427624,0.2663714
3.4222722,0.26924026
3.4019039,0.26914343
3.3816562,0.26774654
3.3615294,0.2749701
3.3415227,0.28357536
3.321635,0.28308553
3.3018653,0.29358357
3.2822137,0.28914225
3.2626784,0.2864191
3.24326,0.28454912
3.2239568,0.28399885
3.2047691,0.2838853
3.1856952,0.28923467
3.1667347,0.29004854
3.1478868,0.29640204
3.1291518,0.2935322
3.1105278,0.29061738
3.0920146,0.29047734
3.0736122,0.2945807
3.0553188,0.2991985
3.037134,0.30098993
3.0190578,0.3056804
3.0010896,0.3104162
2.9832275,0.3059416
2.9654722,0.30434278
2.9478228,0.31356025
2.930278,0.31543761
2.9128375,0.31533054
2.895501,0.31420702
2.878268,0.31457347
2.8611374,0.3052819
2.8441086,0.3137527
2.8271809,0.3140891
2.8103547,0.31855527
2.7936282,0.31578046
2.7770011,0.32185802
2.7604735,0.32589096
2.7440438,0.32360512
2.7277122,0.32500988
2.711477,0.33070785
2.6953394,0.33107024
2.6792972,0.32979795
2.663351,0.3328639
2.6474993,0.33650374
2.631742,0.33410066
2.6160786,0.3444341
2.6005085,0.34929067
2.5850313,0.35138196
2.5696461,0.3433054
2.5543516,0.34194723
2.5391486,0.3302577
2.524037,0.33453822
2.5090146,0.34580913
2.4940815,0.3502105
2.4792366,0.35641086
2.4644816,0.36385208
2.4498136,0.35653874
2.4352329,0.3544959
2.420739,0.35841954
2.4063315,0.35150605
2.3920097,0.3572561
2.377773,0.36611852
2.363621,0.3726148
2.3495533,0.37608284
2.3355696,0.36713392
2.3216686,0.3524304
2.3078513,0.35013235
2.294115,0.3496948
2.280461,0.35433775
2.2668889,0.3673581
2.253397,0.37858695
2.2399855,0.3769608
2.2266536,0.3824813
2.213401,0.37295246
2.2002275,0.36527738
2.1871324,0.36746445
2.174115,0.37902322
2.1611753,0.38936225
2.1483126,0.39913502
2.1355262,0.40628868
2.1228166,0.39434403
2.1101818,0.3787984
2.0976226,0.39284477
2.0851378,0.39310592
2.0727284,0.38564312
2.060392,0.4055863
2.0481286,0.41794905
2.0359385,0.40760237
2.0238216,0.4028616
2.0117764,0.42116675
1.9998028,0.40479332
1.9879006,0.39405736
1.9760691,0.4074487
1.9643079,0.4158072
1.9526169,0.4071323
1.9409955,0.4140625
1.9294431,0.427087
1.9179596,0.42585546
1.9065444,0.4245937
1.8951972,0.43787178
1.8839173,0.45592245
1.8727047,0.46253246
1.8615594,0.46374026
1.8504798,0.45238
1.8394659,0.45982915
1.8285179,0.4570186
1.8176354,0.45735613
1.8068173,0.4657251
1.7960637,0.47822362
1.7853739,0.46806258
1.7747478,0.47168392
1.7641851,0.46791768
1.753685,0.48149285
1.7432475,0.48187456
1.7328722,0.48308235
1.7225585,0.46994442
1.7123064,0.48803577
1.7021154,0.4969346
1.6919845,0.50764066
1.6819143,0.51413643
1.6719041,0.5119991
1.6619537,0.50719416
1.6520622,0.49615574
1.6422291,0.49470162
1.6324553,0.5056759
1.6227394,0.5185552
1.6130813,0.5036408
1.6034806,0.5066562
1.5939372,0.48963037
1.5844505,0.48155499
1.5750202,0.4752109
1.5656462,0.48826703
1.5563277,0.49399194
1.5470649,0.49882856
1.5378572,0.49709
1.5287046,0.51052374
1.5196058,0.4944529
1.5105615,0.5079966
1.5015709,0.49555215
1.4926344,0.49170336
1.4837507,0.49856535
1.4749194,0.51633114
1.466141,0.49464098
1.4574152,0.49361366
1.4487412,0.5216483
1.4401187,0.5207349
1.4315474,0.5279137
1.4230273,0.54333
1.4145577,0.5650765
1.4061385,0.5529564
1.3977697,0.56250566
1.3894506,0.5585518
1.3811809,0.5471647
1.3729603,0.54832375
1.3647891,0.56225544
