energy,intensity
97.76732,0.021628905
92.828835,0.02331187
88.18945,0.024571193
83.8307,0.026108816
79.735245,0.027431617
75.88682,0.029339831
72.27017,0.03139128
68.87099,0.033447083
65.67586,0.035361953
62.672165,0.037335023
59.848106,0.039388157
57.19261,0.04187767
54.69525,0.044427503
52.346306,0.047115203
50.136597,0.049887456
48.057564,0.052952893
46.10113,0.056019742
44.25976,0.05884292
42.52636,0.061822366
40.894283,0.06475167
39.357292,0.06742809
37.909534,0.07042486
36.545517,0.0736499
35.260098,0.07715918
34.04844,0.080716
32.906017,0.08462242
31.828575,0.0886742
30.812122,0.091788106
29.85292,0.09507813
28.947456,0.09860441
28.092442,0.101346835
27.284779,0.104187034
26.521572,0.10811678
25.800108,0.11187241
25.117828,0.11606844
24.472345,0.119486175
23.861408,0.123032704
23.282911,0.12696353
22.734882,0.12951258
22.215462,0.13214822
21.722916,0.13521144
21.255604,0.13879949
20.812004,0.14238642
20.390675,0.14547108
19.990267,0.14809409
19.609518,0.15082133
19.247244,0.15381113
18.902327,0.1553876
18.573725,0.15790191
18.260456,0.16053124
17.961601,0.16336408
17.676302,0.16509637
17.403744,0.16784894
17.143167,0.16997638
16.893862,0.17179653
16.655159,0.17382242
16.426428,0.17615438
16.207083,0.17817971
15.996571,0.18052454
15.794373,0.18099527
15.6,0.1840889
15.412999,0.18679385
15.232939,0.19005132
15.05942,0.19166213
14.892062,0.19352326
14.730514,0.19337639
14.574441,0.19305393
14.423531,0.19356242
14.277491,0.19350646
14.136047,0.19420895
13.998942,0.19569576
13.865933,0.19558148
13.73679,0.19551586
13.611302,0.19560999
13.48927,0.1949016
13.3705015,0.19663289
13.254824,0.19791035
13.142069,0.19673315
13.032082,0.19750133
12.924716,0.19666818
12.819836,0.19498952
12.717309,0.19461876
12.617017,0.19593538
12.518845,0.19596273
12.422684,0.19759662
12.328438,0.19710311
12.23601,0.1968104
12.145311,0.19337395
12.056257,0.19118592
11.968773,0.18966915
11.882783,0.18945171
11.798219,0.18760687
11.7150135,0.18807092
11.633108,0.18752113
11.552444,0.18706919
11.472969,0.18849173
11.394629,0.18774694
11.317378,0.18787272
11.241171,0.18604349
11.165965,0.1871664
11.091721,0.18488145
11.018401,0.18294607
10.945969,0.18535167
10.874393,0.18496788
10.803641,0.18604468
10.733684,0.18576786
10.664492,0.1853378
10.596042,0.18296894
10.528306,0.17959079
10.461264,0.1768518
10.394891,0.17350706
10.329167,0.17475174
10.264075,0.1727449
10.199594,0.17098722
10.135705,0.16919725
10.072394,0.1672307
10.0096445,0.16987619
9.947442,0.1677242
9.885775,0.16641827
9.824624,0.16508725
9.763982,0.16551718
9.703834,0.16699243
9.64417,0.16666928
9.584979,0.16845664
9.526253,0.16812207
9.467979,0.16700783
9.410151,0.16741638
9.3527565,0.16797759
9.295791,0.16791257
9.239244,0.16862564
9.183109,0.16696598
9.12738,0.1649601
9.07205,0.16292238
9.01711,0.16439858
8.962557,0.16523708
8.908382,0.16591564
8.854581,0.16840097
8.801149,0.16975358
8.74808,0.16878979
8.69537,0.16680449
8.643014,0.16680601
8.591007,0.16747746
8.539344,0.16729936
8.48802,0.16813974
8.437034,0.17225644
8.38638,0.17468324
8.336055,0.17626084
8.286055,0.17697366
8.236377,0.17504138
8.187016,0.1714813
8.13797,0.17305054
8.089236,0.1730151
8.04081,0.17712978
7.9926906,0.1800145
7.9448724,0.18457356
7.8973556,0.18550007
7.850135,0.18513483
7.80321,0.17972945
7.7565756,0.17856161
7.710231,0.17454557
7.664174,0.17654261
7.6184006,0.18141867
7.57291,0.18231654
7.5276995,0.18592136
7.482766,0.18917426
7.4381084,0.18640225
7.3937244,0.18358994
7.349611,0.18271443
7.3057675,0.18202057
7.2621903,0.1839133
7.218879,0.18662731
7.175831,0.18754438
7.133044,0.19192928
7.090517,0.19021086
7.0482473,0.1915578
7.0062337,0.1904247
6.9644732,0.18906242
6.9229665,0.18704697
6.881709,0.18626767
6.840701,0.18504733
6.79994,0.18615654
6.7594247,0.18576731
6.719154,0.1851503
6.679125,0.18647753
6.6393356,0.1851872
6.599786,0.18453528
6.560474,0.18719177
6.5213976,0.18920484
6.482556,0.18989013
6.443947,0.19035128
6.4055705,0.19625628
6.367422,0.19857329
6.3295035,0.2068809
6.291812,0.21135406
6.254346,0.20843747
6.217103,0.20921858
6.1800838,0.20812015
6.1432858,0.20889366
6.106708,0.20919295
6.0703483,0.21355832
6.034206,0.21387406
5.9982805,0.21636645
5.9625683,0.21717492
5.92707,0.21724954
5.891784,0.21682397
5.856708,0.21961144
5.8218417,0.21942885
5.787183,0.21898508
5.752732,0.21271749
5.718485,0.21170409
5.684444,0.21143785
5.650605,0.21501884
5.616968,0.21604776
5.583532,0.21968417
5.550295,0.22702217
5.5172563,0.22864504
5.4844136,0.23319419
5.4517684,0.23992217
5.419316,0.23599537
5.387058,0.23282221
5.3549924,0.23258796
5.3231173,0.23070443
5.2914324,0.23071258
5.2599363,0.23375186
5.228627,0.23570752
5.1975055,0.23264495
5.166569,0.23403797
5.135817,0.23260956
5.105248,0.22973225
5.0748606,0.23282608
5.044654,0.23738928
5.0146275,0.23388377
4.9847803,0.23557575
4.955111,0.24079922
4.9256177,0.24401137
4.8963003,0.23953596
4.867158,0.2415674
4.8381886,0.24000995
4.809392,0.2423536
4.7807665,0.2438047
4.7523127,0.24373536
4.724026,0.24427184
4.695909,0.24294908
4.667959,0.24129033
4.640177,0.24022934
4.612559,0.24166775
4.585105,0.24406569
4.557816,0.25062877
4.530688,0.25405416
4.5037217,0.25331643
4.4769163,0.2522361
4.450271,0.25635892
4.423784,0.2549371
4.3974533,0.25811607
4.3712807,0.26032647
4.345264,0.25920942
4.3194017,0.25605088
4.293693,0.25690705
4.2681384,0.2516351
4.2427354,0.2521141
4.217483,0.2553466
4.192381,0.26034212
4.16743,0.26329574
4.142626,0.27013463
4.11797,0.2728108
4.09346,0.27515432
4.069097,0.2760875
4.0448785,0.27091378
4.0208044,0.275066
3.9968739,0.27562207
3.9730854,0.2739802
3.949438,0.2748847
3.925932,0.2817132
3.9025662,0.2781862
3.8793387,0.27985185
3.85625,0.2815274
3.8332987,0.2851087
3.8104842,0.2849087
3.7878044,0.28584725
3.7652605,0.28524277
3.742851,0.28306767
3.7205741,0.28007507
3.6984303,0.2837168
3.6764178,0.29015929
3.6545374,0.2903058
3.632786,0.29404432
3.6111646,0.29982942
3.5896719,0.30445868
3.5683074,0.3046524
3.5470698,0.30483752
3.525958,0.3103724
3.5049734,0.30766946
3.484112,0.3124316
3.4633756,0.30968633
3.4427624,0.3132291
3.4222722,0.3125565
3.4019039,0.31442788
3.3816562,0.31373188
3.3615294,0.3216631
3.3415227,0.32576364
3.321635,0.32290125
3.3018653,0.33187705
3.2822137,0.3250083
3.2626784,0.3229453
3.24326,0.32443076
3.2239568,0.3254717
3.2047691,0.32742038
3.1856952,0.33348662
3.1667347,0.33777803
3.1478868,0.33980048
3.1291518,0.33997715
3.1105278,0.33500424
3.0920146,0.33418992
3.0736122,0.33950064
3.0553188,0.34391177
3.037134,0.3430998
3.0190578,0.3437099
3.0010896,0.3486734
2.9832275,0.34637657
2.9654722,0.34501985
2.9478228,0.35448083
2.930278,0.35709924
2.9128375,0.3587384
2.895501,0.3603844
2.878268,0.36052242
2.8611374,0.3611571
2.8441086,0.36791846
2.8271809,0.36806518
2.8103547,0.37337166
2.7936282,0.37144527
2.7770011,0.37419266
2.7604735,0.37327412
2.7440438,0.3723313
2.7277122,0.3740278
2.711477,0.37733924
2.6953394,0.37528485
2.6792972,0.37915915
2.663351,0.3808836
2.6474993,0.3831641
2.631742,0.3860105
2.6160786,0.3899883
2.6005085,0.3951176
2.5850313,0.40422982
2.5696461,0.4049533
2.5543516,0.40908495
2.5391486,0.4052382
2.524037,0.40824026
2.5090146,0.41300148
2.4940815,0.41139525
2.4792366,0.4162034
2.4644816,0.42459235
2.4498136,0.4223886
2.4352329,0.4189497
2.420739,0.42145815
2.4063315,0.41492206
2.3920097,0.42408967
2.377773,0.42846256
2.363621,0.43164277
2.3495533,0.43484583
2.3355696,0.4368271
2.3216686,0.4269229
2.3078513,0.42633018
2.294115,0.42634892
2.280461,0.427627
2.2668889,0.43339285
2.253397,0.4405024
2.2399855,0.44573504
2.2266536,0.44448766
2.213401,0.44452256
2.2002275,0.44718415
2.1871324,0.45119047
2.174115,0.45723432
2.1611753,0.46198946
2.1483126,0.47422647
2.1355262,0.478427
2.1228166,0.46965283
2.1101818,0.4669551
2.0976226,0.47252232
2.0851378,0.47116953
2.0727284,0.47679514
2.060392,0.48670357
2.0481286,0.49813285
2.0359385,0.49825996
2.0238216,0.49980694
2.0117764,0.5085788
1.9998028,0.5007227
1.9879006,0.4905611
1.9760691,0.49938202
1.9643079,0.5038518
1.9526169,0.5091014
1.9409955,0.51214963
1.9294431,0.52350163
1.9179596,0.5251206
1.9065444,0.53207606
1.8951972,0.5337281
1.8839173,0.54772395
1.8727047,0.5401386
1.8615594,0.5410303
1.8504798,0.53798664
1.8394659,0.543578
1.8285179,0.54444826
1.8176354,0.5437101
1.8068173,0.5525961
1.7960637,0.5591414
1.7853739,0.5543489
1.7747478,0.5543924
1.7641851,0.56018317
1.753685,0.5635372
1.7432475,0.5660776
1.7328722,0.57282174
1.7225585,0.5796262
1.7123064,0.5881892
1.7021154,0.5934185
1.6919845,0.5986895
1.6819143,0.60832274
1.6719041,0.60848796
1.6619537,0.6103821
1.6520622,0.59292364
1.6422291,0.5947039
1.6324553,0.6044964
1.6227394,0.61259377
1.6130813,0.61355865
1.6034806,0.6145133
1.5939372,0.6163689
1.5844505,0.6127214
1.5750202,0.61177635
1.5656462,0.6145111
1.5563277,0.61725646
1.5470649,0.61437637
1.5378572,0.6208899
1.5287046,0.6360157
1.5196058,0.6245216
1.5105615,0.62633675
1.5015709,0.63299054
1.4926344,0.6260699
1.4837507,0.63569534
1.4749194,0.651326
1.466141,0.65026957
1.4574152,0.6491767
1.4487412,0.66510165
1.4401187,0.6630288
1.4315474,0.6659833
1.4230273,0.6709921
1.4145577,0.6832289
1.4061385,0.6759505
1.3977697,0.67999756
1.3894506,0.68616104
1.3811809,0.6881649
1.3729603,0.6986364
1.3647891,0.7081436
