energy,intensity
97.76732,0.025984421
92.828835,0.028102618
88.18945,0.02991061
83.8307,0.03241931
79.735245,0.034303192
75.88682,0.036789708
72.27017,0.039636277
68.87099,0.042457752
65.67586,0.044965897
62.672165,0.047909416
59.848106,0.050971486
57.19261,0.05399882
54.69525,0.057474107
52.346306,0.06066395
50.136597,0.06464208
48.057564,0.06813413
46.10113,0.0714039
44.25976,0.07427605
42.52636,0.077679515
40.894283,0.08042429
39.357292,0.08378659
37.909534,0.087293096
36.545517,0.09098865
35.260098,0.09525367
34.04844,0.09915561
32.906017,0.10387888
31.828575,0.10830857
30.812122,0.111645676
29.85292,0.11562244
28.947456,0.11954029
28.092442,0.1219887
27.284779,0.12559971
26.521572,0.12965246
25.800108,0.13378498
25.117828,0.13851835
24.472345,0.14318147
23.861408,0.1472129
23.282911,0.15199417
22.734882,0.15425166
22.215462,0.15707317
21.722916,0.16110298
21.255604,0.16450815
20.812004,0.16843358
20.390675,0.17227028
19.990267,0.17528467
19.609518,0.1782434
19.247244,0.18122075
18.902327,0.18237475
18.573725,0.18442759
18.260456,0.18822825
17.961601,0.1908746
17.676302,0.19453092
17.403744,0.19599079
17.143167,0.19863077
16.893862,0.19932525
16.655159,0.20069858
16.426428,0.20110437
16.207083,0.2023017
15.996571,0.20396456
15.794373,0.20445931
15.6,0.20458463
15.412999,0.20536952
15.232939,0.20741546
15.05942,0.20652413
14.892062,0.20689325
14.730514,0.20531443
14.574441,0.20063253
14.423531,0.19809668
14.277491,0.19513513
14.136047,0.19204994
13.998942,0.19040106
13.865933,0.18981677
13.73679,0.18768677
13.611302,0.18600033
13.48927,0.18585144
13.3705015,0.18478493
13.254824,0.18321784
13.142069,0.18003458
13.032082,0.1775393
12.924716,0.17271717
12.819836,0.1699356
12.717309,0.16844864
12.617017,0.16852054
12.518845,0.16717198
12.422684,0.16612622
12.328438,0.16668886
12.23601,0.16771045
12.145311,0.16453537
12.056257,0.16333982
11.968773,0.16222662
11.882783,0.16046521
11.798219,0.16050673
11.7150135,0.15941367
11.633108,0.15928677
11.552444,0.15914093
11.472969,0.15998998
11.394629,0.15892166
11.317378,0.15872228
11.241171,0.15760043
11.165965,0.15840158
11.091721,0.15618616
11.018401,0.15551078
10.945969,0.15640706
10.874393,0.15757018
10.803641,0.15846756
10.733684,0.1601774
10.664492,0.15999012
10.596042,0.15773186
10.528306,0.15488152
10.461264,0.15420699
10.394891,0.15113708
10.329167,0.15153593
10.264075,0.15051462
10.199594,0.14961383
10.135705,0.1469722
10.072394,0.1480403
10.0096445,0.15071066
9.947442,0.14931543
9.885775,0.15039389
9.824624,0.14659628
9.763982,0.14706025
9.703834,0.14767224
9.64417,0.1482844
9.584979,0.14950338
9.526253,0.14996734
9.467979,0.15089035
9.410151,0.14934653
9.3527565,0.15150616
9.295791,0.1513402
9.239244,0.15415403
9.183109,0.15019023
9.12738,0.14728579
9.07205,0.14850448
9.01711,0.15037633
8.962557,0.15275106
8.908382,0.15384312
8.854581,0.15576269
8.801149,0.15736885
8.74808,0.15682831
8.69537,0.15460335
8.643014,0.15570804
8.591007,0.15698896
8.539344,0.1569176
8.48802,0.15786645
8.437034,0.1629546
8.38638,0.1654985
8.336055,0.16754368
8.286055,0.16943166
8.236377,0.16904198
8.187016,0.16402559
8.13797,0.16626424
8.089236,0.1649303
8.04081,0.1699
7.9926906,0.1712865
7.9448724,0.17579308
7.8973556,0.17482647
7.850135,0.17476727
7.80321,0.1702308
7.7565756,0.17031744
7.710231,0.16361292
7.664174,0.1672509
7.6184006,0.17035422
7.57291,0.17156948
7.5276995,0.17607506
7.482766,0.18179373
7.4381084,0.1772189
7.3937244,0.17454803
7.349611,0.1728273
7.3057675,0.17267089
7.2621903,0.17230615
7.218879,0.1763598
7.175831,0.17660767
7.133044,0.18377943
7.090517,0.18283199
7.0482473,0.18372227
7.0062337,0.1812976
6.9644732,0.18175869
6.9229665,0.17802003
6.881709,0.1792985
6.840701,0.17442463
6.79994,0.17525645
6.7594247,0.17415683
6.719154,0.17303768
6.679125,0.17276916
6.6393356,0.1689888
6.599786,0.16691856
6.560474,0.17013404
6.5213976,0.17070779
6.482556,0.17352417
6.443947,0.17681918
6.4055705,0.18037426
6.367422,0.18008545
6.3295035,0.19333375
6.291812,0.19472294
6.254346,0.19519229
6.217103,0.19379017
6.1800838,0.19354
6.1432858,0.19327988
6.106708,0.1961035
6.0703483,0.20254524
6.034206,0.19918227
5.9982805,0.19989064
5.9625683,0.20035663
5.92707,0.19861414
5.891784,0.19881698
5.856708,0.20298545
5.8218417,0.20644787
5.787183,0.20592633
5.752732,0.20084372
5.718485,0.20026751
5.684444,0.19967712
5.650605,0.20061569
5.616968,0.20233455
5.583532,0.20562854
5.550295,0.21314423
5.5172563,0.21863525
5.4844136,0.22073948
5.4517684,0.22739288
5.419316,0.22446378
5.387058,0.22014245
5.3549924,0.22037506
5.3231173,0.21841839
5.2914324,0.21835299
5.2599363,0.22325239
5.228627,0.22486722
5.1975055,0.22146006
5.166569,0.22672427
5.135817,0.22751589
5.105248,0.22375408
5.0748606,0.22509387
5.044654,0.2310512
5.0146275,0.22460958
4.9847803,0.2250798
4.955111,0.2293605
4.9256177,0.23220913
4.8963003,0.23152176
4.867158,0.23290801
4.8381886,0.23250024
4.809392,0.23691423
4.7807665,0.24076477
4.7523127,0.23975976
4.724026,0.23965716
4.695909,0.2389257
4.667959,0.24004495
4.640177,0.24054256
4.612559,0.24450345
4.585105,0.2469184
4.557816,0.24903445
4.530688,0.25116715
4.5037217,0.24944408
4.4769163,0.24671748
4.450271,0.2498275
4.423784,0.25066626
4.3974533,0.2564636
4.3712807,0.25766668
4.345264,0.25586477
4.3194017,0.2550415
4.293693,0.25792247
4.2681384,0.25572118
4.2427354,0.25827992
4.217483,0.26086017
4.192381,0.2613821
4.16743,0.26364452
4.142626,0.26873133
4.11797,0.27034032
4.09346,0.27870473
4.069097,0.2810878
4.0448785,0.27917773
4.0208044,0.28265658
3.9968739,0.2825308
3.9730854,0.27946708
3.949438,0.28040445
3.925932,0.28282374
3.9025662,0.28116542
3.8793387,0.28547138
3.85625,0.28906494
3.8332987,0.29458702
3.8104842,0.29673222
3.7878044,0.29965997
3.7652605,0.30184013
3.742851,0.30364734
3.7205741,0.30273104
3.6984303,0.30454364
3.6764178,0.30873898
3.6545374,0.31217816
3.632786,0.3140473
3.6111646,0.3207571
3.5896719,0.32186785
3.5683074,0.32420227
3.5470698,0.32368505
3.525958,0.3247987
3.5049734,0.32549942
3.484112,0.33036828
3.4633756,0.33024815
3.4427624,0.32969263
3.4222722,0.33421463
3.4019039,0.3310891
3.3816562,0.33264175
3.3615294,0.33852452
3.3415227,0.34838012
3.321635,0.34696567
3.3018653,0.35740608
3.2822137,0.35334688
3.2626784,0.35056275
3.24326,0.349973
3.2239568,0.35387158
3.2047691,0.34964144
3.1856952,0.35219106
3.1667347,0.35200506
3.1478868,0.35365105
3.1291518,0.3566973
3.1105278,0.35696408
3.0920146,0.36192155
3.0736122,0.36266991
3.0553188,0.36626846
3.037134,0.36654735
3.0190578,0.3658537
3.0010896,0.37046546
2.9832275,0.3702478
2.9654722,0.3709943
2.9478228,0.37568063
2.930278,0.3823938
2.9128375,0.38618016
2.895501,0.38698655
2.878268,0.38980854
2.8611374,0.3870629
2.8441086,0.39500135
2.8271809,0.39222583
2.8103547,0.397677
2.7936282,0.40109855
2.7770011,0.4040234
2.7604735,0.39959815
2.7440438,0.4019907
2.7277122,0.40173355
2.711477,0.40467492
2.6953394,0.40008813
2.6792972,0.40085635
2.663351,0.400528
2.6474993,0.40786666
2.631742,0.41196543
2.6160786,0.42220956
2.6005085,0.42809063
2.5850313,0.4289671
2.5696461,0.42757645
2.5543516,0.42956764
2.5391486,0.42870536
2.524037,0.4318479
2.5090146,0.43964672
2.4940815,0.4364519
2.4792366,0.44258246
2.4644816,0.45053968
2.4498136,0.44789806
2.4352329,0.44222465
2.420739,0.4454728
2.4063315,0.4439122
2.3920097,0.44839287
2.377773,0.4571897
2.363621,0.4630015
2.3495533,0.46268088
2.3355696,0.46358433
2.3216686,0.4601001
2.3078513,0.45655742
2.294115,0.4535896
2.280461,0.45949188
2.2668889,0.46544847
2.253397,0.4714601
2.2399855,0.47493166
2.2266536,0.4797334
2.213401,0.47932273
2.2002275,0.4775688
2.1871324,0.48574415
2.174115,0.4926633
2.1611753,0.49897543
2.1483126,0.5066985
2.1355262,0.50973237
2.1228166,0.50662255
2.1101818,0.5013913
2.0976226,0.50508606
2.0851378,0.5018374
2.0727284,0.50273836
2.060392,0.5113914
2.0481286,0.52509725
2.0359385,0.5232444
2.0238216,0.5328402
2.0117764,0.5360304
1.9998028,0.5334259
1.9879006,0.5366198
1.9760691,0.5390972
1.9643079,0.54306495
1.9526169,0.5470607
1.9409955,0.5450949
1.9294431,0.555891
1.9179596,0.55997705
1.9065444,0.5679036
1.8951972,0.56593585
1.8839173,0.5801245
1.8727047,0.5735092
1.8615594,0.5730393
1.8504798,0.56783116
1.8394659,0.5736013
1.8285179,0.571472
1.8176354,0.5748935
1.8068173,0.58235735
1.7960637,0.5874625
1.7853739,0.5869098
1.7747478,0.5871483
1.7641851,0.5947827
1.753685,0.6008301
1.7432475,0.600259
1.7328722,0.60049826
1.7225585,0.6074685
1.7123064,0.6077106
1.7021154,0.6190337
1.6919845,0.6244581
1.6819143,0.629061
1.6719041,0.62848103
1.6619537,0.63836515
1.6520622,0.6210743
1.6422291,0.6274481
1.6324553,0.6276435
1.6227394,0.63229704
1.6130813,0.63338
1.6034806,0.6417041
1.5939372,0.64007545
1.5844505,0.63656986
1.5750202,0.637613
1.5656462,0.64328706
1.5563277,0.64807266
1.5470649,0.6538317
1.5378572,0.65491134
1.5287046,0.659783
1.5196058,0.6522569
1.5105615,0.65423805
1.5015709,0.6562195
1.4926344,0.66014826
1.4837507,0.6621418
1.4749194,0.67793095
1.466141,0.67604244
1.4574152,0.67809546
1.4487412,0.6911839
1.4401187,0.6912857
1.4315474,0.69542474
1.4230273,0.70571625
1.4145577,0.718161
1.4061385,0.69248754
1.3977697,0.7111902
1.3894506,0.7123104
1.3811809,0.7102619
1.3729603,0.7176902
1.3647891,0.73902506
