energy,intensity
97.76732,0.042782124
92.828835,0.045277312
88.18945,0.047972325
83.8307,0.050622664
79.735245,0.053368617
75.88682,0.055672914
72.27017,0.058740508
68.87099,0.062019534
65.67586,0.065103166
62.672165,0.06769002
59.848106,0.070107035
57.19261,0.073387556
54.69525,0.07745584
52.346306,0.081597865
50.136597,0.08551306
48.057564,0.090573326
46.10113,0.09492148
44.25976,0.09877205
42.52636,0.10218289
40.894283,0.10675851
39.357292,0.11111232
37.909534,0.11581572
36.545517,0.120894
35.260098,0.12777427
34.04844,0.13355914
32.906017,0.13907933
31.828575,0.14460926
30.812122,0.14956841
29.85292,0.15228081
28.947456,0.15895191
28.092442,0.16342758
27.284779,0.17263304
26.521572,0.17842282
25.800108,0.18684834
25.117828,0.1925602
24.472345,0.19698592
23.861408,0.19922772
23.282911,0.2053638
22.734882,0.20730963
22.215462,0.21411936
21.722916,0.22305539
21.255604,0.2293952
20.812004,0.23777623
20.390675,0.2465382
19.990267,0.24893184
19.609518,0.25191236
19.247244,0.25823957
18.902327,0.2623367
18.573725,0.26768208
18.260456,0.27482116
17.961601,0.28117388
17.676302,0.29146746
17.403744,0.29594857
17.143167,0.29841238
16.893862,0.30135363
16.655159,0.30741787
16.426428,0.30948666
16.207083,0.31125402
15.996571,0.31725803
15.794373,0.32251576
15.6,0.32802477
15.412999,0.3353049
15.232939,0.3415581
15.05942,0.3443356
14.892062,0.34752208
14.730514,0.35498378
14.574441,0.35798743
14.423531,0.36374822
14.277491,0.36889398
14.136047,0.37700596
13.998942,0.38142505
13.865933,0.39105815
13.73679,0.39790863
13.611302,0.40168387
13.48927,0.4033784
13.3705015,0.40761375
13.254824,0.40963608
13.142069,0.41447765
13.032082,0.42600513
12.924716,0.42864442
12.819836,0.4362324
12.717309,0.44134912
12.617017,0.44577894
12.518845,0.44486323
12.422684,0.4529864
12.328438,0.45550624
12.23601,0.45514622
12.145311,0.45232272
12.056257,0.45795417
11.968773,0.45960158
11.882783,0.46439514
11.798219,0.4705569
11.7150135,0.48047405
11.633108,0.49285197
11.552444,0.50195444
11.472969,0.51151186
11.394629,0.5203855
11.317378,0.5195715
11.241171,0.51197517
11.165965,0.51633453
11.091721,0.51402545
11.018401,0.5152036
10.945969,0.5256499
10.874393,0.5313817
10.803641,0.5284046
10.733684,0.5353689
10.664492,0.5376159
10.596042,0.5362884
10.528306,0.5405669
10.461264,0.55222785
10.394891,0.5493225
10.329167,0.5514107
10.264075,0.5632617
10.199594,0.57280713
10.135705,0.5712558
10.072394,0.57297075
10.0096445,0.5772885
9.947442,0.58571976
9.885775,0.5917257
9.824624,0.5924502
9.763982,0.5946414
9.703834,0.5944332
9.64417,0.5863563
9.584979,0.5857318
9.526253,0.5899529
9.467979,0.5931234
9.410151,0.5992395
9.3527565,0.59903204
9.295791,0.5941041
9.239244,0.5868864
9.183109,0.59126526
9.12738,0.59025776
9.07205,0.5922557
9.01711,0.5994102
8.962557,0.5990047
8.908382,0.5954692
8.854581,0.60138524
8.801149,0.5979355
8.74808,0.6020612
8.69537,0.60972226
8.643014,0.6179558
8.591007,0.6274483
8.539344,0.64043486
8.48802,0.64019805
8.437034,0.6478565
8.38638,0.6496899
8.336055,0.6417569
8.286055,0.6475588
8.236377,0.6491706
8.187016,0.6454514
8.13797,0.6439837
8.089236,0.65055835
8.04081,0.64435476
7.9926906,0.64677936
7.9448724,0.65817213
7.8973556,0.66618085
7.850135,0.66852194
7.80321,0.6704933
7.7565756,0.6750866
7.710231,0.6746205
7.664174,0.67203766
7.6184006,0.6756939
7.57291,0.69203526
7.5276995,0.69445384
7.482766,0.69842976
7.4381084,0.7129788
7.3937244,0.71922445
7.349611,0.71820223
7.3057675,0.71674335
7.2621903,0.72044384
7.218879,0.7157067
7.175831,0.7206079
7.133044,0.71881807
7.090517,0.7218995
7.0482473,0.7342705
7.0062337,0.7260202
6.9644732,0.7312082
6.9229665,0.74965745
6.881709,0.7668232
6.840701,0.7565482
6.79994,0.77347934
6.7594247,0.76328003
6.719154,0.75574195
6.679125,0.7483038
6.6393356,0.7565094
6.599786,0.7592813
6.560474,0.7673755
6.5213976,0.7666251
6.482556,0.77301204
6.443947,0.7722306
6.4055705,0.76914304
6.367422,0.7742077
6.3295035,0.7809123
6.291812,0.7964468
6.254346,0.7923877
6.217103,0.7938617
6.1800838,0.80167407
6.1432858,0.7981961
6.106708,0.7955995
6.0703483,0.8132933
6.034206,0.82225895
5.9982805,0.8220957
5.9625683,0.82190096
5.92707,0.8246166
5.891784,0.815495
5.856708,0.83477175
5.8218417,0.83802354
5.787183,0.8533386
5.752732,0.8478384
5.718485,0.8592695
5.684444,0.8572566
5.650605,0.8521023
5.616968,0.8564288
5.583532,0.8644206
5.550295,0.8606941
5.5172563,0.85294086
5.4844136,0.8601686
5.4517684,0.87678224
5.419316,0.8766691
5.387058,0.90134305
5.3549924,0.9178675
5.3231173,0.9219986
5.2914324,0.90554696
5.2599363,0.910693
5.228627,0.9000248
5.1975055,0.90597326
5.166569,0.92405635
5.135817,0.9256276
5.105248,0.94398034
5.0748606,0.9622334
5.044654,0.9435071
5.0146275,0.92770994
4.9847803,0.933848
4.955111,0.9294673
4.9256177,0.9394585
4.8963003,0.949536
4.867158,0.9653738
4.8381886,0.9711541
4.809392,0.96941423
4.7807665,0.9560672
4.7523127,0.95231104
4.724026,0.94539976
4.695909,0.95415545
4.667959,0.9629819
4.640177,0.97000057
4.612559,0.9770687
4.585105,0.982285
4.557816,0.9763681
4.530688,0.9703458
4.5037217,0.98680466
4.4769163,1.0014781
4.450271,1.0110666
4.423784,1.0227052
4.3974533,1.0387439
4.3712807,1.0220224
4.345264,1.0094117
4.3194017,1.0218484
4.293693,1.0350748
4.2681384,1.0337808
4.2427354,1.0567554
4.217483,1.067218
4.192381,1.0538484
4.16743,1.0496957
4.142626,1.0644006
4.11797,1.0538332
4.09346,1.0438113
4.069097,1.0575614
4.0448785,1.0825772
4.0208044,1.0811073
3.9968739,1.0835804
3.9730854,1.11165
3.949438,1.1186738
3.925932,1.1231507
3.9025662,1.1194481
3.8793387,1.1493781
3.85625,1.1457071
3.8332987,1.1408138
3.8104842,1.1293368
3.7878044,1.1376336
3.7652605,1.1278477
3.742851,1.1412015
3.7205741,1.1476438
3.6984303,1.1533363
3.6764178,1.1495683
3.6545374,1.1552579
3.632786,1.1653756
3.6111646,1.1767801
3.5896719,1.1769432
3.5683074,1.1872481
3.5470698,1.1824747
3.525958,1.1932644
3.5049734,1.2132628
3.484112,1.22011
3.4633756,1.2261565
3.4427624,1.2313873
3.4222722,1.2396094
3.4019039,1.2226801
3.3816562,1.2257034
3.3615294,1.2390946
3.3415227,1.2482532
3.321635,1.2386632
3.3018653,1.2460794
3.2822137,1.2504408
3.2626784,1.2463462
3.24326,1.2461908
3.2239568,1.2604139
3.2047691,1.2706813
3.1856952,1.2741835
3.1667347,1.2707982
3.1478868,1.2857939
3.1291518,1.2763077
3.1105278,1.2872202
3.0920146,1.292107
3.0736122,1.2899134
3.0553188,1.3033446
3.037134,1.3432095
3.0190578,1.3305523
3.0010896,1.3346443
2.9832275,1.3694298
2.9654722,1.3619462
2.9478228,1.3671423
2.930278,1.3778079
2.9128375,1.4130002
2.895501,1.3833139
2.878268,1.3956355
2.8611374,1.3994201
2.8441086,1.406266
2.8271809,1.4187986
2.8103547,1.4495299
2.7936282,1.4342782
2.7770011,1.4412956
2.7604735,1.4609812
2.7440438,1.4559584
2.7277122,1.4801271
2.711477,1.5002453
2.6953394,1.4979041
2.6792972,1.4960241
2.663351,1.5109838
2.6474993,1.4969748
2.631742,1.5009679
2.6160786,1.5127324
2.6005085,1.5407908
2.5850313,1.5612605
2.5696461,1.5575998
2.5543516,1.5663573
2.5391486,1.5631435
2.524037,1.570199
2.5090146,1.5610645
2.4940815,1.5727422
2.4792366,1.5610559
2.4644816,1.5639151
2.4498136,1.5697192
2.4352329,1.5755372
2.420739,1.6107868
2.4063315,1.6071436
2.3920097,1.6307404
2.377773,1.6398929
2.363621,1.6417183
2.3495533,1.639177
2.3355696,1.662681
2.3216686,1.6626202
2.3078513,1.6675367
2.294115,1.6654847
2.280461,1.7041347
2.2668889,1.7034391
2.253397,1.7284721
2.2399855,1.7900772
2.2266536,1.7975315
2.213401,1.7780902
2.2002275,1.8178002
2.1871324,1.8120714
2.174115,1.7955137
2.1611753,1.8197136
2.1483126,1.8123434
2.1355262,1.8177503
2.1228166,1.7971407
2.1101818,1.7968817
2.0976226,1.7972476
2.0851378,1.8080084
2.0727284,1.7984993
2.060392,1.8177321
2.0481286,1.8243583
2.0359385,1.8288568
2.0238216,1.8778661
2.0117764,1.9042807
1.9998028,1.9244032
1.9879006,1.9651686
1.9760691,1.9754641
1.9643079,1.9480789
1.9526169,1.9567655
1.9409955,1.9377823
1.9294431,1.9252809
1.9179596,1.9360504
1.9065444,1.9247738
1.8951972,1.9608374
1.8839173,1.9610064
1.8727047,1.9905965
1.8615594,1.9970497
1.8504798,2.041993
1.8394659,2.0218263
1.8285179,2.0371108
1.8176354,2.0517058
1.8068173,2.0599685
1.7960637,2.0909133
1.7853739,2.125411
1.7747478,2.1528766
1.7641851,2.1665905
1.753685,2.1845355
1.7432475,2.1851091
1.7328722,2.2015471
1.7225585,2.213885
1.7123064,2.2288384
1.7021154,2.2695057
1.6919845,2.2796588
1.6819143,2.3045409
1.6719041,2.2818294
1.6619537,2.265759
1.6520622,2.2590919
1.6422291,2.259344
1.6324553,2.2399306
1.6227394,2.2936442
1.6130813,2.3235943
1.6034806,2.3239117
1.5939372,2.326884
1.5844505,2.3536575
1.5750202,2.3566766
1.5656462,2.342011
1.5563277,2.3177469
1.5470649,2.3372605
1.5378572,2.342749
1.5287046,2.3368106
1.5196058,2.380451
1.5105615,2.4264536
1.5015709,2.4274313
1.4926344,2.4283328
1.4837507,2.4232824
1.4749194,2.4180846
1.466141,2.4147203
1.4574152,2.4531102
1.4487412,2.468801
1.4401187,2.4704633
1.4315474,2.472057
1.4230273,2.4858367
1.4145577,2.4914742
1.4061385,2.4681492
1.3977697,2.4922843
1.3894506,2.4632761
1.3811809,2.452771
1.3729603,2.425115
1.3647891,2.420467
