energy,intensity
97.76732,0.038159035
92.828835,0.040611807
88.18945,0.043374497
83.8307,0.04588979
79.735245,0.048647832
75.88682,0.050770175
72.27017,0.05367286
68.87099,0.05659626
65.67586,0.059637345
62.672165,0.06193904
59.848106,0.064254664
57.19261,0.067111
54.69525,0.0707864
52.346306,0.075184435
50.136597,0.078961894
48.057564,0.08364802
46.10113,0.087954454
44.25976,0.09200773
42.52636,0.09531375
40.894283,0.09947307
39.357292,0.103837766
37.909534,0.10791832
36.545517,0.11182694
35.260098,0.118623994
34.04844,0.12489422
32.906017,0.12971611
31.828575,0.13492909
30.812122,0.13980474
29.85292,0.1419113
28.947456,0.14760537
28.092442,0.15178747
27.284779,0.15952976
26.521572,0.16560008
25.800108,0.17434295
25.117828,0.18012014
24.472345,0.18451467
23.861408,0.18753353
23.282911,0.19250515
22.734882,0.19471636
22.215462,0.20103535
21.722916,0.20820288
21.255604,0.21489993
20.812004,0.22283229
20.390675,0.23078656
19.990267,0.23373711
19.609518,0.23657084
19.247244,0.24064608
18.902327,0.24695937
18.573725,0.2519545
18.260456,0.25954005
17.961601,0.266124
17.676302,0.27576357
17.403744,0.27999875
17.143167,0.28433955
16.893862,0.28664297
16.655159,0.28883144
16.426428,0.29055297
16.207083,0.29340923
15.996571,0.29817897
15.794373,0.30402055
15.6,0.3106966
15.412999,0.31540912
15.232939,0.32009146
15.05942,0.32262158
14.892062,0.32292908
14.730514,0.3280492
14.574441,0.32986695
14.423531,0.3341244
14.277491,0.33774567
14.136047,0.34667686
13.998942,0.34965694
13.865933,0.35888052
13.73679,0.36384144
13.611302,0.36495358
13.48927,0.36523852
13.3705015,0.36674365
13.254824,0.36786106
13.142069,0.3710172
13.032082,0.3809512
12.924716,0.38254148
12.819836,0.38839185
12.717309,0.39140883
12.617017,0.39371377
12.518845,0.39088064
12.422684,0.39648008
12.328438,0.39750698
12.23601,0.39516485
12.145311,0.38902155
12.056257,0.39068955
11.968773,0.3911167
11.882783,0.39431396
11.798219,0.39627793
11.7150135,0.40318632
11.633108,0.41527
11.552444,0.4238307
11.472969,0.43158025
11.394629,0.43735352
11.317378,0.43404636
11.241171,0.42470664
11.165965,0.42821798
11.091721,0.42387772
11.018401,0.42234564
10.945969,0.43071693
10.874393,0.43462104
10.803641,0.43033767
10.733684,0.43842298
10.664492,0.43758798
10.596042,0.43328255
10.528306,0.43910703
10.461264,0.4488674
10.394891,0.44124755
10.329167,0.4439145
10.264075,0.45579165
10.199594,0.46180797
10.135705,0.45927015
10.072394,0.46533126
10.0096445,0.46795803
9.947442,0.47015372
9.885775,0.47529173
9.824624,0.4770666
9.763982,0.47764802
9.703834,0.48030916
9.64417,0.4774035
9.584979,0.48050323
9.526253,0.48819476
9.467979,0.49426946
9.410151,0.5058013
9.3527565,0.50781745
9.295791,0.5023306
9.239244,0.4984838
9.183109,0.5035884
9.12738,0.50188625
9.07205,0.5031851
9.01711,0.51285917
8.962557,0.51484567
8.908382,0.51210344
8.854581,0.51899016
8.801149,0.5143798
8.74808,0.51833093
8.69537,0.5206372
8.643014,0.5303489
8.591007,0.53964955
8.539344,0.55652994
8.48802,0.5554432
8.437034,0.568274
8.38638,0.56997347
8.336055,0.561559
8.286055,0.5656492
8.236377,0.5680022
8.187016,0.56059825
8.13797,0.5607623
8.089236,0.5736628
8.04081,0.56554997
7.9926906,0.57222784
7.9448724,0.5846354
7.8973556,0.5927537
7.850135,0.59002465
7.80321,0.5933866
7.7565756,0.59489316
7.710231,0.5903637
7.664174,0.5903084
7.6184006,0.5982428
7.57291,0.6106644
7.5276995,0.6120153
7.482766,0.61763257
7.4381084,0.629938
7.3937244,0.64079577
7.349611,0.6410825
7.3057675,0.644333
7.2621903,0.6479992
7.218879,0.64202213
7.175831,0.6456712
7.133044,0.6405793
7.090517,0.64462626
7.0482473,0.65447193
7.0062337,0.6513439
6.9644732,0.6521192
6.9229665,0.6719836
6.881709,0.690162
6.840701,0.67517835
6.79994,0.692263
6.7594247,0.6843718
6.719154,0.6778751
6.679125,0.675845
6.6393356,0.68274105
6.599786,0.6802262
6.560474,0.6867391
6.5213976,0.68951684
6.482556,0.6949934
6.443947,0.69735324
6.4055705,0.69427073
6.367422,0.6959196
6.3295035,0.7044512
6.291812,0.7098263
6.254346,0.70594543
6.217103,0.70947313
6.1800838,0.71607447
6.1432858,0.70640594
6.106708,0.7082573
6.0703483,0.7218367
6.034206,0.72688276
5.9982805,0.7317208
5.9625683,0.7278162
5.92707,0.7292327
5.891784,0.7220065
5.856708,0.74171585
5.8218417,0.74341196
5.787183,0.7579094
5.752732,0.7477954
5.718485,0.7545611
5.684444,0.75345516
5.650605,0.75127995
5.616968,0.7477581
5.583532,0.75249624
5.550295,0.7480996
5.5172563,0.7441501
5.4844136,0.7496664
5.4517684,0.7650851
5.419316,0.76859397
5.387058,0.7856063
5.3549924,0.8000809
5.3231173,0.8045988
5.2914324,0.7945851
5.2599363,0.7927118
5.228627,0.7793914
5.1975055,0.78321946
5.166569,0.80225515
5.135817,0.8030971
5.105248,0.8195776
5.0748606,0.8362266
5.044654,0.82654107
5.0146275,0.8085946
4.9847803,0.81110364
4.955111,0.80012214
4.9256177,0.8055031
4.8963003,0.8118103
4.867158,0.8235388
4.8381886,0.8242645
4.809392,0.8237604
4.7807665,0.8055891
4.7523127,0.80246127
4.724026,0.80111325
4.695909,0.81271887
4.667959,0.8213211
4.640177,0.8331292
4.612559,0.83339137
4.585105,0.8367966
4.557816,0.8312842
4.530688,0.8247137
4.5037217,0.8364283
4.4769163,0.858317
4.450271,0.87227356
4.423784,0.8801244
4.3974533,0.8896907
4.3712807,0.87905896
4.345264,0.86525786
4.3194017,0.87750435
4.293693,0.88072747
4.2681384,0.8808931
4.2427354,0.9108305
4.217483,0.93248034
4.192381,0.92038393
4.16743,0.911945
4.142626,0.9254743
4.11797,0.91019285
4.09346,0.8932754
4.069097,0.9039811
4.0448785,0.92053205
4.0208044,0.92459786
3.9968739,0.92867917
3.9730854,0.9539925
3.949438,0.9611765
3.925932,0.96471035
3.9025662,0.96862423
3.8793387,0.9976512
3.85625,0.97573555
3.8332987,0.97399503
3.8104842,0.95656097
3.7878044,0.9657415
3.7652605,0.9634182
3.742851,0.97035134
3.7205741,0.98006743
3.6984303,0.9875072
3.6764178,0.9843277
3.6545374,0.99101627
3.632786,0.9937496
3.6111646,0.9972849
3.5896719,0.99677813
3.5683074,1.0072265
3.5470698,1.0017847
3.525958,1.0069586
3.5049734,1.0295733
3.484112,1.0399091
3.4633756,1.0507514
3.4427624,1.0557762
3.4222722,1.0587002
3.4019039,1.0364158
3.3816562,1.0426214
3.3615294,1.0553492
3.3415227,1.0594931
3.321635,1.0548983
3.3018653,1.0568126
3.2822137,1.0587122
3.2626784,1.0534699
3.24326,1.0512632
3.2239568,1.0688274
3.2047691,1.0725057
3.1856952,1.0789273
3.1667347,1.0762086
3.1478868,1.0909626
3.1291518,1.079381
3.1105278,1.090516
3.0920146,1.0885849
3.0736122,1.0889555
3.0553188,1.099281
3.037134,1.1264393
3.0190578,1.1153724
3.0010896,1.1220504
2.9832275,1.1521528
2.9654722,1.1463087
2.9478228,1.1497209
2.930278,1.1526371
2.9128375,1.1730098
2.895501,1.1484116
2.878268,1.1694257
2.8611374,1.1662682
2.8441086,1.17785
2.8271809,1.1946697
2.8103547,1.2266448
2.7936282,1.2074574
2.7770011,1.2209672
2.7604735,1.2398598
2.7440438,1.2250389
2.7277122,1.2355703
2.711477,1.2595842
2.6953394,1.249332
2.6792972,1.2465061
2.663351,1.2556062
2.6474993,1.2351278
2.631742,1.2590902
2.6160786,1.2599622
2.6005085,1.2809188
2.5850313,1.3015187
2.5696461,1.2929096
2.5543516,1.3012202
2.5391486,1.2935569
2.524037,1.3007258
2.5090146,1.2899778
2.4940815,1.2953708
2.4792366,1.2896444
2.4644816,1.2991346
2.4498136,1.301574
2.4352329,1.3111573
2.420739,1.3394202
2.4063315,1.3353605
2.3920097,1.3500389
2.377773,1.3483429
2.363621,1.3502672
2.3495533,1.352166
2.3355696,1.3751962
2.3216686,1.3796742
2.3078513,1.3728211
2.294115,1.3835751
2.280461,1.4103405
2.2668889,1.41045
2.253397,1.4266343
2.2399855,1.4728073
2.2266536,1.4705296
2.213401,1.4504435
2.2002275,1.4729993
2.1871324,1.4778318
2.174115,1.4652891
2.1611753,1.4828044
2.1483126,1.482888
2.1355262,1.4829195
2.1228166,1.4692054
2.1101818,1.4628503
2.0976226,1.466759
2.0851378,1.4804204
2.0727284,1.4675473
2.060392,1.4819771
2.0481286,1.4894311
2.0359385,1.4862139
2.0238216,1.5080382
2.0117764,1.5394623
1.9998028,1.5566735
1.9879006,1.5762293
1.9760691,1.6025823
1.9643079,1.5840628
1.9526169,1.5950358
1.9409955,1.579128
1.9294431,1.5735179
1.9179596,1.5768774
1.9065444,1.5619252
1.8951972,1.5866144
1.8839173,1.5837711
1.8727047,1.5885973
1.8615594,1.6051346
1.8504798,1.6445898
1.8394659,1.6512766
1.8285179,1.6555996
1.8176354,1.6615139
1.8068173,1.6593969
1.7960637,1.683897
1.7853739,1.6956075
1.7747478,1.734421
1.7641851,1.7538674
1.753685,1.77017
1.7432475,1.7832695
1.7328722,1.7889144
1.7225585,1.815656
1.7123064,1.8316195
1.7021154,1.8639319
1.6919845,1.8501828
1.6819143,1.858668
1.6719041,1.852411
1.6619537,1.853008
1.6520622,1.8526665
1.6422291,1.8602196
1.6324553,1.8321848
1.6227394,1.865545
1.6130813,1.8911302
1.6034806,1.8861392
1.5939372,1.8937848
1.5844505,1.9142958
1.5750202,1.9192984
1.5656462,1.9131527
1.5563277,1.9049972
1.5470649,1.9182823
1.5378572,1.9250424
1.5287046,1.9394197
1.5196058,1.9558146
1.5105615,1.9771459
1.5015709,1.9889839
1.4926344,1.983366
1.4837507,1.9717327
1.4749194,1.9855096
1.466141,1.9864938
1.4574152,2.0153399
1.4487412,2.0534883
1.4401187,2.062756
1.4315474,2.0700305
1.4230273,2.0916162
1.4145577,2.1072218
1.4061385,2.076429
1.3977697,2.1002984
1.3894506,2.0658047
1.3811809,2.058181
1.3729603,2.027104
1.3647891,2.030722
