energy,intensity
97.76732,0.0354387
92.828835,0.037731096
88.18945,0.040078573
83.8307,0.042127762
79.735245,0.044163994
75.88682,0.04619301
72.27017,0.048745982
68.87099,0.051341794
65.67586,0.054060865
62.672165,0.056025725
59.848106,0.058062334
57.19261,0.060275387
54.69525,0.063452676
52.346306,0.06682752
50.136597,0.07014969
48.057564,0.074333645
46.10113,0.07802411
44.25976,0.080909
42.52636,0.08342089
40.894283,0.086714655
39.357292,0.09047032
37.909534,0.093580335
36.545517,0.09679474
35.260098,0.101683594
34.04844,0.10594239
32.906017,0.11059213
31.828575,0.114883766
30.812122,0.1181548
29.85292,0.11956576
28.947456,0.12420942
28.092442,0.12762769
27.284779,0.13289706
26.521572,0.13710502
25.800108,0.14353016
25.117828,0.14748675
24.472345,0.15066423
23.861408,0.15178095
23.282911,0.15561455
22.734882,0.15732008
22.215462,0.16158718
21.722916,0.16745882
21.255604,0.17250796
20.812004,0.17737201
20.390675,0.18474331
19.990267,0.18597183
19.609518,0.18906397
19.247244,0.19284908
18.902327,0.19813645
18.573725,0.20265904
18.260456,0.20788674
17.961601,0.21336849
17.676302,0.22190996
17.403744,0.22363158
17.143167,0.22779378
16.893862,0.23115537
16.655159,0.23455557
16.426428,0.23578672
16.207083,0.23861913
15.996571,0.2444849
15.794373,0.25055927
15.6,0.2568487
15.412999,0.26251087
15.232939,0.26628175
15.05942,0.2678058
14.892062,0.26876602
14.730514,0.27319348
14.574441,0.275421
14.423531,0.28031787
14.277491,0.2843049
14.136047,0.29157045
13.998942,0.2926612
13.865933,0.29955626
13.73679,0.3055464
13.611302,0.30836335
13.48927,0.30802852
13.3705015,0.31054735
13.254824,0.31347686
13.142069,0.3153923
13.032082,0.32541436
12.924716,0.32823005
12.819836,0.33284256
12.717309,0.33666867
12.617017,0.33853856
12.518845,0.3364336
12.422684,0.34067574
12.328438,0.34292644
12.23601,0.3440915
12.145311,0.33768642
12.056257,0.33885473
11.968773,0.3396316
11.882783,0.34233394
11.798219,0.3456499
11.7150135,0.35418373
11.633108,0.36692172
11.552444,0.37615126
11.472969,0.38217717
11.394629,0.38824844
11.317378,0.38447776
11.241171,0.37622416
11.165965,0.37719625
11.091721,0.37657636
11.018401,0.37644416
10.945969,0.38477725
10.874393,0.3859734
10.803641,0.38379282
10.733684,0.39076236
10.664492,0.39125353
10.596042,0.38719746
10.528306,0.39051676
10.461264,0.4019107
10.394891,0.39315215
10.329167,0.3945281
10.264075,0.40623373
10.199594,0.41179425
10.135705,0.40908456
10.072394,0.41223302
10.0096445,0.41351062
9.947442,0.4165346
9.885775,0.42192617
9.824624,0.42159382
9.763982,0.42361683
9.703834,0.42594308
9.64417,0.42164618
9.584979,0.4239467
9.526253,0.42717043
9.467979,0.43133456
9.410151,0.44062632
9.3527565,0.44177637
9.295791,0.4358847
9.239244,0.42864257
9.183109,0.43601066
9.12738,0.43405518
9.07205,0.43782392
9.01711,0.44307032
8.962557,0.44511852
8.908382,0.44293118
8.854581,0.447428
8.801149,0.44023648
8.74808,0.4447345
8.69537,0.45060617
8.643014,0.46039805
8.591007,0.46995187
8.539344,0.48436818
8.48802,0.48455745
8.437034,0.49024186
8.38638,0.4954558
8.336055,0.4865915
8.286055,0.49005383
8.236377,0.4880689
8.187016,0.48515362
8.13797,0.48450574
8.089236,0.4969468
8.04081,0.48837203
7.9926906,0.49822187
7.9448724,0.50359863
7.8973556,0.5130697
7.850135,0.5137492
7.80321,0.5151624
7.7565756,0.5190091
7.710231,0.5144005
7.664174,0.50857925
7.6184006,0.5164041
7.57291,0.52929366
7.5276995,0.5291905
7.482766,0.5331452
7.4381084,0.54592025
7.3937244,0.5552908
7.349611,0.5536802
7.3057675,0.5540189
7.2621903,0.558344
7.218879,0.5504197
7.175831,0.5482534
7.133044,0.5452259
7.090517,0.54337174
7.0482473,0.5536412
7.0062337,0.54928607
6.9644732,0.5538319
6.9229665,0.5682785
6.881709,0.5792883
6.840701,0.57490015
6.79994,0.58817774
6.7594247,0.5828879
6.719154,0.5742687
6.679125,0.5727058
6.6393356,0.5759191
6.599786,0.5699013
6.560474,0.57597464
6.5213976,0.5767517
6.482556,0.5826735
6.443947,0.5789474
6.4055705,0.5776514
6.367422,0.5751778
6.3295035,0.5850527
6.291812,0.59248435
6.254346,0.5939423
6.217103,0.5982014
6.1800838,0.6039012
6.1432858,0.5966362
6.106708,0.59711605
6.0703483,0.6064386
6.034206,0.6124794
5.9982805,0.6132403
5.9625683,0.6083821
5.92707,0.60932857
5.891784,0.60015094
5.856708,0.61441576
5.8218417,0.616348
5.787183,0.62681973
5.752732,0.621226
5.718485,0.6313001
5.684444,0.62843335
5.650605,0.626281
5.616968,0.6277029
5.583532,0.6278177
5.550295,0.6252929
5.5172563,0.62403244
5.4844136,0.6293593
5.4517684,0.6475233
5.419316,0.64389193
5.387058,0.6677115
5.3549924,0.67985165
5.3231173,0.68392265
5.2914324,0.6737358
5.2599363,0.6788753
5.228627,0.6615375
5.1975055,0.6643803
5.166569,0.6796103
5.135817,0.6800008
5.105248,0.70086837
5.0748606,0.71136534
5.044654,0.7015083
5.0146275,0.6912179
4.9847803,0.69768906
4.955111,0.69746715
4.9256177,0.7034137
4.8963003,0.7070318
4.867158,0.7232092
4.8381886,0.72964233
4.809392,0.7252477
4.7807665,0.7168224
4.7523127,0.7125513
4.724026,0.71312624
4.695909,0.7170867
4.667959,0.72387093
4.640177,0.73384273
4.612559,0.7410724
4.585105,0.7372685
4.557816,0.73147905
4.530688,0.7211033
4.5037217,0.73187464
4.4769163,0.75476056
4.450271,0.76613766
4.423784,0.7763097
4.3974533,0.7862461
4.3712807,0.7766572
4.345264,0.7629119
4.3194017,0.775555
4.293693,0.78358346
4.2681384,0.78282696
4.2427354,0.80190086
4.217483,0.81359434
4.192381,0.80425274
4.16743,0.79860574
4.142626,0.80935144
4.11797,0.79513943
4.09346,0.7864089
4.069097,0.79040307
4.0448785,0.81094503
4.0208044,0.81182444
3.9968739,0.811958
3.9730854,0.85047257
3.949438,0.8570367
3.925932,0.85883635
3.9025662,0.8609993
3.8793387,0.88750875
3.85625,0.8638029
3.8332987,0.8572217
3.8104842,0.8478608
3.7878044,0.85984385
3.7652605,0.85264045
3.742851,0.8678411
3.7205741,0.8742094
3.6984303,0.8810152
3.6764178,0.8815465
3.6545374,0.8820523
3.632786,0.8873337
3.6111646,0.8958661
3.5896719,0.88908404
3.5683074,0.898073
3.5470698,0.89771384
3.525958,0.90473765
3.5049734,0.92466706
3.484112,0.9285351
3.4633756,0.9328357
3.4427624,0.93926513
3.4222722,0.94234097
3.4019039,0.9185053
3.3816562,0.92228574
3.3615294,0.9373196
3.3415227,0.9403219
3.321635,0.93282586
3.3018653,0.94325286
3.2822137,0.9400444
3.2626784,0.933646
3.24326,0.9248967
3.2239568,0.94080245
3.2047691,0.9514238
3.1856952,0.9539269
3.1667347,0.9463291
3.1478868,0.96584594
3.1291518,0.9549085
3.1105278,0.96015865
3.0920146,0.95791703
3.0736122,0.9589238
3.0553188,0.96371394
3.037134,0.9843184
3.0190578,0.9815469
3.0010896,0.9942034
2.9832275,1.0176942
2.9654722,1.0120254
2.9478228,1.0205499
2.930278,1.0286443
2.9128375,1.0477757
2.895501,1.0289527
2.878268,1.0436971
2.8611374,1.0402949
2.8441086,1.0506115
2.8271809,1.0502195
2.8103547,1.0704699
2.7936282,1.0602317
2.7770011,1.0650097
2.7604735,1.0792835
2.7440438,1.0778012
2.7277122,1.0858526
2.711477,1.110042
2.6953394,1.1059041
2.6792972,1.105474
2.663351,1.1082729
2.6474993,1.0918529
2.631742,1.0928681
2.6160786,1.109411
2.6005085,1.1317018
2.5850313,1.1435375
2.5696461,1.1447284
2.5543516,1.1504445
2.5391486,1.1413065
2.524037,1.1527461
2.5090146,1.1440082
2.4940815,1.1426998
2.4792366,1.146025
2.4644816,1.1522965
2.4498136,1.1413983
2.4352329,1.1530068
2.420739,1.1749196
2.4063315,1.1734986
2.3920097,1.1902459
2.377773,1.1918715
2.363621,1.1830211
2.3495533,1.1987641
2.3355696,1.2165201
2.3216686,1.2137879
2.3078513,1.207201
2.294115,1.203026
2.280461,1.2248869
2.2668889,1.229656
2.253397,1.240888
2.2399855,1.2768655
2.2266536,1.2747202
2.213401,1.2652806
2.2002275,1.2920119
2.1871324,1.2970896
2.174115,1.2861388
2.1611753,1.3025815
2.1483126,1.3002329
2.1355262,1.3025736
2.1228166,1.2898337
2.1101818,1.2837819
2.0976226,1.2831542
2.0851378,1.2943221
2.0727284,1.2677139
2.060392,1.2858849
2.0481286,1.2871978
2.0359385,1.2870526
2.0238216,1.3249191
2.0117764,1.3545243
1.9998028,1.3691748
1.9879006,1.3956499
1.9760691,1.408419
1.9643079,1.4013145
1.9526169,1.3985403
1.9409955,1.3934362
1.9294431,1.3897274
1.9179596,1.3980482
1.9065444,1.3721159
1.8951972,1.392601
1.8839173,1.3770243
1.8727047,1.3829409
1.8615594,1.3982471
1.8504798,1.4380343
1.8394659,1.4355834
1.8285179,1.4505373
1.8176354,1.4752134
1.8068173,1.4888723
1.7960637,1.4921225
1.7853739,1.525477
1.7747478,1.5518073
1.7641851,1.5693367
1.753685,1.5911639
1.7432475,1.5956886
1.7328722,1.5935009
1.7225585,1.5971358
1.7123064,1.6177324
1.7021154,1.6368103
1.6919845,1.6217012
1.6819143,1.62277
1.6719041,1.6298783
1.6619537,1.6291428
1.6520622,1.6177843
1.6422291,1.6398605
1.6324553,1.6247511
1.6227394,1.6488087
1.6130813,1.6730963
1.6034806,1.6822073
1.5939372,1.7013973
1.5844505,1.7134186
1.5750202,1.7042999
1.5656462,1.709863
1.5563277,1.6911519
1.5470649,1.6843684
1.5378572,1.6878376
1.5287046,1.6941402
1.5196058,1.715761
1.5105615,1.7433517
1.5015709,1.7518543
1.4926344,1.7701321
1.4837507,1.7630994
1.4749194,1.7657734
1.466141,1.7614768
1.4574152,1.8039337
1.4487412,1.8107214
1.4401187,1.8185352
1.4315474,1.8121649
1.4230273,1.8240364
1.4145577,1.8287932
1.4061385,1.8201052
1.3977697,1.8611557
1.3894506,1.8471956
1.3811809,1.8361584
1.3729603,1.8164546
1.3647891,1.8230703
