energy,intensity
97.76732,0.040284764
92.828835,0.043085463
88.18945,0.045764055
83.8307,0.04814354
79.735245,0.050853293
75.88682,0.053432204
72.27017,0.05620668
68.87099,0.059656084
65.67586,0.063089445
62.672165,0.06520875
59.848106,0.06772724
57.19261,0.07077022
54.69525,0.074639276
52.346306,0.079015814
50.136597,0.08386076
48.057564,0.08884957
46.10113,0.09340827
44.25976,0.097491406
42.52636,0.10105513
40.894283,0.10636761
39.357292,0.11218319
37.909534,0.11731087
36.545517,0.12371751
35.260098,0.13115412
34.04844,0.1390654
32.906017,0.14641091
31.828575,0.1528283
30.812122,0.1589076
29.85292,0.16065428
28.947456,0.16718566
28.092442,0.17051515
27.284779,0.17795953
26.521572,0.18286146
25.800108,0.19259402
25.117828,0.19834623
24.472345,0.20280579
23.861408,0.20434391
23.282911,0.20985809
22.734882,0.21197617
22.215462,0.21830621
21.722916,0.22706957
21.255604,0.23213014
20.812004,0.23952202
20.390675,0.24810627
19.990267,0.24864101
19.609518,0.25057834
19.247244,0.25703144
18.902327,0.26287487
18.573725,0.2678386
18.260456,0.27784562
17.961601,0.28424862
17.676302,0.29270074
17.403744,0.29611564
17.143167,0.30044702
16.893862,0.30247197
16.655159,0.30567262
16.426428,0.30807105
16.207083,0.31161276
15.996571,0.31871167
15.794373,0.3251842
15.6,0.33156496
15.412999,0.33766216
15.232939,0.3425122
15.05942,0.34616917
14.892062,0.34810764
14.730514,0.3552798
14.574441,0.35609278
14.423531,0.3625391
14.277491,0.36696
14.136047,0.37402445
13.998942,0.3769609
13.865933,0.38445497
13.73679,0.39177233
13.611302,0.39420965
13.48927,0.39583662
13.3705015,0.39739624
13.254824,0.39889076
13.142069,0.40153903
13.032082,0.41050392
12.924716,0.41166502
12.819836,0.41843385
12.717309,0.42009312
12.617017,0.4243539
12.518845,0.42477933
12.422684,0.42830142
12.328438,0.43369755
12.23601,0.43162876
12.145311,0.42408246
12.056257,0.4262506
11.968773,0.42718053
11.882783,0.4302718
11.798219,0.4313849
11.7150135,0.4368059
11.633108,0.44950104
11.552444,0.45603627
11.472969,0.4665424
11.394629,0.47408652
11.317378,0.47308487
11.241171,0.46504408
11.165965,0.46700487
11.091721,0.46174508
11.018401,0.45927778
10.945969,0.4692212
10.874393,0.47017127
10.803641,0.46813855
10.733684,0.4743038
10.664492,0.4738379
10.596042,0.46921796
10.528306,0.4714086
10.461264,0.4817927
10.394891,0.47564143
10.329167,0.4761352
10.264075,0.48736724
10.199594,0.49215826
10.135705,0.48938155
10.072394,0.49014893
10.0096445,0.48988217
9.947442,0.492215
9.885775,0.49543247
9.824624,0.49348664
9.763982,0.49134192
9.703834,0.490793
9.64417,0.4841848
9.584979,0.4867199
9.526253,0.49124599
9.467979,0.49365553
9.410151,0.5037936
9.3527565,0.5053312
9.295791,0.5006109
9.239244,0.49455124
9.183109,0.4980492
9.12738,0.49519873
9.07205,0.4978985
9.01711,0.5023827
8.962557,0.50268394
8.908382,0.4987257
8.854581,0.5050388
8.801149,0.4991879
8.74808,0.50537264
8.69537,0.5081018
8.643014,0.5147109
8.591007,0.52222526
8.539344,0.53423464
8.48802,0.53130096
8.437034,0.5391626
8.38638,0.54103285
8.336055,0.5313977
8.286055,0.5360074
8.236377,0.535182
8.187016,0.52900034
8.13797,0.53022397
8.089236,0.5370116
8.04081,0.5324738
7.9926906,0.53677046
7.9448724,0.5438427
7.8973556,0.5531877
7.850135,0.5511464
7.80321,0.5483146
7.7565756,0.5501122
7.710231,0.54832953
7.664174,0.5455565
7.6184006,0.552459
7.57291,0.5671004
7.5276995,0.5699271
7.482766,0.5708245
7.4381084,0.5814811
7.3937244,0.58890307
7.349611,0.5863077
7.3057675,0.5880358
7.2621903,0.5921648
7.218879,0.5846448
7.175831,0.5899748
7.133044,0.5882164
7.090517,0.58621025
7.0482473,0.59405595
7.0062337,0.5932622
6.9644732,0.5905591
6.9229665,0.60522604
6.881709,0.6162461
6.840701,0.6080431
6.79994,0.62087804
6.7594247,0.61599916
6.719154,0.6086599
6.679125,0.6062152
6.6393356,0.6146639
6.599786,0.61504424
6.560474,0.6185082
6.5213976,0.6206543
6.482556,0.62796015
6.443947,0.627663
6.4055705,0.62416303
6.367422,0.6258482
6.3295035,0.6316641
6.291812,0.6359101
6.254346,0.6366987
6.217103,0.6346686
6.1800838,0.6417627
6.1432858,0.639929
6.106708,0.6409062
6.0703483,0.65073043
6.034206,0.65559137
5.9982805,0.65612584
5.9625683,0.6512809
5.92707,0.6568979
5.891784,0.64751196
5.856708,0.6628047
5.8218417,0.6672734
5.787183,0.6752877
5.752732,0.6737738
5.718485,0.6803504
5.684444,0.6757319
5.650605,0.67489177
5.616968,0.6747934
5.583532,0.6762315
5.550295,0.673473
5.5172563,0.67144734
5.4844136,0.6767931
5.4517684,0.69017607
5.419316,0.6859957
5.387058,0.7003552
5.3549924,0.7181188
5.3231173,0.7202347
5.2914324,0.71136373
5.2599363,0.71893907
5.228627,0.7112919
5.1975055,0.71638983
5.166569,0.7330564
5.135817,0.73263514
5.105248,0.7444235
5.0748606,0.7611953
5.044654,0.7476034
5.0146275,0.7364296
4.9847803,0.74492085
4.955111,0.7414621
4.9256177,0.74737704
4.8963003,0.7515552
4.867158,0.7668048
4.8381886,0.77079535
4.809392,0.7702734
4.7807665,0.7642457
4.7523127,0.7688215
4.724026,0.7648109
4.695909,0.7706283
4.667959,0.78022397
4.640177,0.7839557
4.612559,0.7905402
4.585105,0.7936888
4.557816,0.7898315
4.530688,0.7849375
4.5037217,0.7973822
4.4769163,0.8112459
4.450271,0.82492054
4.423784,0.83873004
4.3974533,0.8490399
4.3712807,0.8375
4.345264,0.82512206
4.3194017,0.83712816
4.293693,0.8441715
4.2681384,0.8458207
4.2427354,0.86253166
4.217483,0.8818245
4.192381,0.86907816
4.16743,0.8638194
4.142626,0.8735523
4.11797,0.8678419
4.09346,0.8567063
4.069097,0.8668362
4.0448785,0.89035064
4.0208044,0.8949586
3.9968739,0.8897721
3.9730854,0.912292
3.949438,0.91738635
3.925932,0.91954726
3.9025662,0.92505294
3.8793387,0.95044726
3.85625,0.9501079
3.8332987,0.9489721
3.8104842,0.9451188
3.7878044,0.9496266
3.7652605,0.944119
3.742851,0.948995
3.7205741,0.9499897
3.6984303,0.9513551
3.6764178,0.9519121
3.6545374,0.9568161
3.632786,0.96814585
3.6111646,0.9775647
3.5896719,0.9749155
3.5683074,0.9844181
3.5470698,0.9894928
3.525958,0.9917077
3.5049734,1.0067676
3.484112,1.0157156
3.4633756,1.0259933
3.4427624,1.0304477
3.4222722,1.0366174
3.4019039,1.00822
3.3816562,1.0185542
3.3615294,1.0302732
3.3415227,1.0403562
3.321635,1.0282085
3.3018653,1.0286429
3.2822137,1.0259459
3.2626784,1.022289
3.24326,1.0248249
3.2239568,1.0377228
3.2047691,1.0466568
3.1856952,1.0597665
3.1667347,1.0573921
3.1478868,1.0701869
3.1291518,1.0556942
3.1105278,1.0708922
3.0920146,1.074954
3.0736122,1.0766616
3.0553188,1.0812052
3.037134,1.110648
3.0190578,1.0932286
3.0010896,1.1041324
2.9832275,1.1302301
2.9654722,1.1222945
2.9478228,1.1275351
2.930278,1.136766
2.9128375,1.1595383
2.895501,1.1428906
2.878268,1.1588218
2.8611374,1.167284
2.8441086,1.1737621
2.8271809,1.1756494
2.8103547,1.2044079
2.7936282,1.1949718
2.7770011,1.2016033
2.7604735,1.2124829
2.7440438,1.2080907
2.7277122,1.214791
2.711477,1.2349284
2.6953394,1.2358519
2.6792972,1.2324029
2.663351,1.2441471
2.6474993,1.2235998
2.631742,1.2331352
2.6160786,1.2344074
2.6005085,1.2529756
2.5850313,1.2790304
2.5696461,1.2793359
2.5543516,1.2881339
2.5391486,1.293557
2.524037,1.3030291
2.5090146,1.2917157
2.4940815,1.290709
2.4792366,1.28261
2.4644816,1.2814434
2.4498136,1.2814038
2.4352329,1.2866887
2.420739,1.3112028
2.4063315,1.3166378
2.3920097,1.3445711
2.377773,1.3440645
2.363621,1.3361253
2.3495533,1.3298984
2.3355696,1.3509281
2.3216686,1.3508791
2.3078513,1.3457425
2.294115,1.3474652
2.280461,1.3695536
2.2668889,1.382882
2.253397,1.3930968
2.2399855,1.4364736
2.2266536,1.4372422
2.213401,1.4222095
2.2002275,1.4373302
2.1871324,1.4525809
2.174115,1.4418926
2.1611753,1.4673377
2.1483126,1.4537985
2.1355262,1.4461699
2.1228166,1.4288124
2.1101818,1.4139509
2.0976226,1.407867
2.0851378,1.4169934
2.0727284,1.4114536
2.060392,1.4297799
2.0481286,1.4241489
2.0359385,1.4169714
2.0238216,1.4649513
2.0117764,1.4831138
1.9998028,1.5101622
1.9879006,1.542599
1.9760691,1.5650734
1.9643079,1.5478089
1.9526169,1.5444231
1.9409955,1.5304588
1.9294431,1.5275704
1.9179596,1.5329278
1.9065444,1.5291469
1.8951972,1.552106
1.8839173,1.5428843
1.8727047,1.5544504
1.8615594,1.5660992
1.8504798,1.6045353
1.8394659,1.6054516
1.8285179,1.610295
1.8176354,1.6255333
1.8068173,1.6408964
1.7960637,1.645866
1.7853739,1.6874673
1.7747478,1.7164055
1.7641851,1.7167966
1.753685,1.7494513
1.7432475,1.7415848
1.7328722,1.7536898
1.7225585,1.7591276
1.7123064,1.7866352
1.7021154,1.8255091
1.6919845,1.8226961
1.6819143,1.8241041
1.6719041,1.8115555
1.6619537,1.8040375
1.6520622,1.7946056
1.6422291,1.811546
1.6324553,1.7867811
1.6227394,1.8350945
1.6130813,1.8632004
1.6034806,1.864386
1.5939372,1.8682547
1.5844505,1.877606
1.5750202,1.8796206
1.5656462,1.8704526
1.5563277,1.8676445
1.5470649,1.8713115
1.5378572,1.8796804
1.5287046,1.8861809
1.5196058,1.9060819
1.5105615,1.9328886
1.5015709,1.9434936
1.4926344,1.9444191
1.4837507,1.9384298
1.4749194,1.9520073
1.466141,1.9646858
1.4574152,1.9914072
1.4487412,2.0083458
1.4401187,2.005233
1.4315474,1.9959196
1.4230273,2.0007207
1.4145577,2.0198917
1.4061385,2.0092473
1.3977697,2.0327146
1.3894506,2.041747
1.3811809,2.0487106
1.3729603,2.0186353
1.3647891,2.0222025
