energy,intensity
97.76732,0.051894505
92.828835,0.055406787
88.18945,0.05891482
83.8307,0.062255472
79.735245,0.06561716
75.88682,0.06884902
72.27017,0.0729782
68.87099,0.07653789
65.67586,0.08063765
62.672165,0.083551615
59.848106,0.08613428
57.19261,0.08914252
54.69525,0.09374416
52.346306,0.09850602
50.136597,0.10313742
48.057564,0.10865774
46.10113,0.11412011
44.25976,0.11830972
42.52636,0.121799275
40.894283,0.12719333
39.357292,0.13201281
37.909534,0.13670933
36.545517,0.14121531
35.260098,0.14788842
34.04844,0.15349272
32.906017,0.15890995
31.828575,0.16465458
30.812122,0.16956747
29.85292,0.17238694
28.947456,0.17883345
28.092442,0.18308648
27.284779,0.1918618
26.521572,0.19721858
25.800108,0.20543742
25.117828,0.21153846
24.472345,0.21628658
23.861408,0.21908347
23.282911,0.2244645
22.734882,0.22674291
22.215462,0.23354907
21.722916,0.24225661
21.255604,0.2497023
20.812004,0.25795758
20.390675,0.2657823
19.990267,0.26899758
19.609518,0.27192307
19.247244,0.27726775
18.902327,0.28240407
18.573725,0.28951293
18.260456,0.29782245
17.961601,0.30455786
17.676302,0.31383106
17.403744,0.31740987
17.143167,0.32299748
16.893862,0.32526922
16.655159,0.33176348
16.426428,0.33470213
16.207083,0.339501
15.996571,0.3456041
15.794373,0.353065
15.6,0.36193594
15.412999,0.36934453
15.232939,0.37762204
15.05942,0.3803325
14.892062,0.38304523
14.730514,0.39158714
14.574441,0.39368647
14.423531,0.40042534
14.277491,0.4085928
14.136047,0.41679358
13.998942,0.42149854
13.865933,0.4305728
13.73679,0.43895847
13.611302,0.44012251
13.48927,0.44464278
13.3705015,0.44750553
13.254824,0.44943744
13.142069,0.45229816
13.032082,0.46057624
12.924716,0.46024173
12.819836,0.46582088
12.717309,0.4650051
12.617017,0.46674317
12.518845,0.46494713
12.422684,0.469599
12.328438,0.4742499
12.23601,0.4737939
12.145311,0.4711097
12.056257,0.47362518
11.968773,0.47550854
11.882783,0.48029488
11.798219,0.48262882
11.7150135,0.4891581
11.633108,0.49897355
11.552444,0.5073639
11.472969,0.5177189
11.394629,0.52523226
11.317378,0.52291024
11.241171,0.5149487
11.165965,0.5165949
11.091721,0.511798
11.018401,0.50953186
10.945969,0.5219322
10.874393,0.52389747
10.803641,0.52221656
10.733684,0.5254847
10.664492,0.525896
10.596042,0.5225726
10.528306,0.52441615
10.461264,0.5361124
10.394891,0.5284904
10.329167,0.5319939
10.264075,0.53961545
10.199594,0.5450218
10.135705,0.5455895
10.072394,0.5474316
10.0096445,0.5492663
9.947442,0.5546002
9.885775,0.5593829
9.824624,0.55724347
9.763982,0.5557924
9.703834,0.5560923
9.64417,0.54973733
9.584979,0.5522224
9.526253,0.55699974
9.467979,0.56073487
9.410151,0.5700497
9.3527565,0.57246006
9.295791,0.5669004
9.239244,0.56108916
9.183109,0.5673678
9.12738,0.56701046
9.07205,0.5711094
9.01711,0.5770068
8.962557,0.5800324
8.908382,0.5771972
8.854581,0.58316636
8.801149,0.57795477
8.74808,0.5809625
8.69537,0.5868242
8.643014,0.5923967
8.591007,0.6024114
8.539344,0.61609733
8.48802,0.61382985
8.437034,0.6190896
8.38638,0.62456185
8.336055,0.6197896
8.286055,0.62475735
8.236377,0.6255259
8.187016,0.620954
8.13797,0.6180886
8.089236,0.6252259
8.04081,0.6195927
7.9926906,0.62095904
7.9448724,0.62158674
7.8973556,0.63250375
7.850135,0.6335314
7.80321,0.63343
7.7565756,0.6394867
7.710231,0.6405031
7.664174,0.6352501
7.6184006,0.6386853
7.57291,0.6538447
7.5276995,0.6546826
7.482766,0.6580312
7.4381084,0.6713607
7.3937244,0.6801083
7.349611,0.6802355
7.3057675,0.6817318
7.2621903,0.68522215
7.218879,0.6756432
7.175831,0.6849623
7.133044,0.6864222
7.090517,0.69053924
7.0482473,0.7039594
7.0062337,0.7061065
6.9644732,0.70762765
6.9229665,0.7261454
6.881709,0.7389463
6.840701,0.7355153
6.79994,0.74740463
6.7594247,0.7413491
6.719154,0.7336797
6.679125,0.7332898
6.6393356,0.738341
6.599786,0.7403433
6.560474,0.75053936
6.5213976,0.7557051
6.482556,0.76673466
6.443947,0.7659157
6.4055705,0.7657398
6.367422,0.76804507
6.3295035,0.78068274
6.291812,0.7890552
6.254346,0.7909936
6.217103,0.7969007
6.1800838,0.8021445
6.1432858,0.8007984
6.106708,0.8001213
6.0703483,0.8130539
6.034206,0.8210548
5.9982805,0.8230648
5.9625683,0.82531327
5.92707,0.8351604
5.891784,0.83004856
5.856708,0.85313463
5.8218417,0.86024106
5.787183,0.8716712
5.752732,0.87663877
5.718485,0.8862092
5.684444,0.8818008
5.650605,0.8850239
5.616968,0.88644266
5.583532,0.8883673
5.550295,0.8913304
5.5172563,0.89719486
5.4844136,0.9020375
5.4517684,0.9239669
5.419316,0.9254773
5.387058,0.94531745
5.3549924,0.96291953
5.3231173,0.9703237
5.2914324,0.9645982
5.2599363,0.96816367
5.228627,0.95728385
5.1975055,0.962177
5.166569,0.9879103
5.135817,0.988732
5.105248,1.006324
5.0748606,1.0246639
5.044654,1.0172591
5.0146275,1.0019038
4.9847803,1.0073197
4.955111,1.0060185
4.9256177,1.0144027
4.8963003,1.0240386
4.867158,1.0424126
4.8381886,1.0465515
4.809392,1.0413347
4.7807665,1.0354102
4.7523127,1.0364106
4.724026,1.0318487
4.695909,1.0414313
4.667959,1.0563847
4.640177,1.073985
4.612559,1.0788403
4.585105,1.0821302
4.557816,1.084145
4.530688,1.0832587
4.5037217,1.0907128
4.4769163,1.1157472
4.450271,1.1325512
4.423784,1.1436032
4.3974533,1.1517727
4.3712807,1.1410478
4.345264,1.1298187
4.3194017,1.1443222
4.293693,1.1508353
4.2681384,1.1526182
4.2427354,1.1759616
4.217483,1.1960973
4.192381,1.190086
4.16743,1.1877953
4.142626,1.2057828
4.11797,1.2002971
4.09346,1.190087
4.069097,1.2032841
4.0448785,1.2277353
4.0208044,1.2282187
3.9968739,1.234118
3.9730854,1.2616258
3.949438,1.2721236
3.925932,1.2875142
3.9025662,1.2866577
3.8793387,1.3292024
3.85625,1.3235933
3.8332987,1.3231771
3.8104842,1.3108851
3.7878044,1.326024
3.7652605,1.3158224
3.742851,1.3353493
3.7205741,1.3398292
3.6984303,1.3588542
3.6764178,1.3488058
3.6545374,1.3608582
3.632786,1.3678058
3.6111646,1.3828375
3.5896719,1.385044
3.5683074,1.3998533
3.5470698,1.3967625
3.525958,1.4075985
3.5049734,1.440905
3.484112,1.4545381
3.4633756,1.4724789
3.4427624,1.4850944
3.4222722,1.4867667
3.4019039,1.4563649
3.3816562,1.4702421
3.3615294,1.490286
3.3415227,1.4996438
3.321635,1.4889336
3.3018653,1.4965279
3.2822137,1.4913187
3.2626784,1.4868847
3.24326,1.4913061
3.2239568,1.5106035
3.2047691,1.5205545
3.1856952,1.5305713
3.1667347,1.5314746
3.1478868,1.5494163
3.1291518,1.5410439
3.1105278,1.5470002
3.0920146,1.5543826
3.0736122,1.554232
3.0553188,1.5616353
3.037134,1.5996968
3.0190578,1.5895379
3.0010896,1.5917907
2.9832275,1.6290905
2.9654722,1.6167902
2.9478228,1.6274563
2.930278,1.6446403
2.9128375,1.6754434
2.895501,1.6588728
2.878268,1.6829427
2.8611374,1.6884476
2.8441086,1.6934469
2.8271809,1.7056429
2.8103547,1.7406771
2.7936282,1.727689
2.7770011,1.7479767
2.7604735,1.7773956
2.7440438,1.7732079
2.7277122,1.7939479
2.711477,1.8121933
2.6953394,1.7960832
2.6792972,1.7981583
2.663351,1.8192923
2.6474993,1.7961502
2.631742,1.8140837
2.6160786,1.8310562
2.6005085,1.8599031
2.5850313,1.8783476
2.5696461,1.882241
2.5543516,1.8883908
2.5391486,1.8750852
2.524037,1.8932213
2.5090146,1.8842831
2.4940815,1.9013922
2.4792366,1.8940188
2.4644816,1.9147936
2.4498136,1.9019353
2.4352329,1.9264524
2.420739,1.9608009
2.4063315,1.9544216
2.3920097,1.9758451
2.377773,1.9876753
2.363621,1.9780556
2.3495533,1.9818573
2.3355696,2.0173693
2.3216686,2.0188067
2.3078513,2.0145204
2.294115,2.023415
2.280461,2.0661204
2.2668889,2.06695
2.253397,2.0980296
2.2399855,2.1780677
2.2266536,2.1787076
2.213401,2.154326
2.2002275,2.1870406
2.1871324,2.20678
2.174115,2.1752057
2.1611753,2.1989887
2.1483126,2.1993015
2.1355262,2.2056642
2.1228166,2.176423
2.1101818,2.1722364
2.0976226,2.1713853
2.0851378,2.1809018
2.0727284,2.1687164
2.060392,2.190166
2.0481286,2.1954744
2.0359385,2.2064784
2.0238216,2.2584667
2.0117764,2.282825
1.9998028,2.3226557
1.9879006,2.3658059
1.9760691,2.391003
1.9643079,2.3646262
1.9526169,2.364642
1.9409955,2.3533425
1.9294431,2.3350434
1.9179596,2.349782
1.9065444,2.337171
1.8951972,2.3826053
1.8839173,2.3891566
1.8727047,2.4166546
1.8615594,2.4319038
1.8504798,2.47788
1.8394659,2.4540024
1.8285179,2.4782333
1.8176354,2.5018659
1.8068173,2.526498
1.7960637,2.551335
1.7853739,2.6219642
1.7747478,2.6589541
1.7641851,2.66746
1.753685,2.6834311
1.7432475,2.6878262
1.7328722,2.7005646
1.7225585,2.7133594
1.7123064,2.7330003
1.7021154,2.7929091
1.6919845,2.7778506
1.6819143,2.7892976
1.6719041,2.7912207
1.6619537,2.7782001
1.6520622,2.7640445
1.6422291,2.7690902
1.6324553,2.7393746
1.6227394,2.7880182
1.6130813,2.827235
1.6034806,2.8169723
1.5939372,2.8374858
1.5844505,2.881075
1.5750202,2.8854065
1.5656462,2.8822608
1.5563277,2.8743043
1.5470649,2.8849382
1.5378572,2.906937
1.5287046,2.9281433
1.5196058,2.9705427
1.5105615,3.0056462
1.5015709,3.0129957
1.4926344,3.0047457
1.4837507,2.9718022
1.4749194,2.9600358
1.466141,2.9708197
1.4574152,3.0185227
1.4487412,3.0265636
1.4401187,3.0386295
1.4315474,3.0537775
1.4230273,3.087381
1.4145577,3.0719612
1.4061385,3.0603814
1.3977697,3.0953412
1.3894506,3.0668051
1.3811809,3.0472865
1.3729603,3.0242486
1.3647891,3.0136037
