energy,intensity
97.76732,0.04089424
92.828835,0.04332031
88.18945,0.046307884
83.8307,0.049201068
79.735245,0.052238554
75.88682,0.05469619
72.27017,0.058519296
68.87099,0.0626315
65.67586,0.06702839
62.672165,0.07049595
59.848106,0.07360389
57.19261,0.07732631
54.69525,0.08146813
52.346306,0.08612336
50.136597,0.090556875
48.057564,0.095472455
46.10113,0.10002849
44.25976,0.10458408
42.52636,0.1085736
40.894283,0.11251582
39.357292,0.11679902
37.909534,0.12217965
36.545517,0.12701823
35.260098,0.13424543
34.04844,0.14081547
32.906017,0.14729425
31.828575,0.15218905
30.812122,0.1576341
29.85292,0.15963195
28.947456,0.16593052
28.092442,0.16948047
27.284779,0.17726712
26.521572,0.18231349
25.800108,0.19231239
25.117828,0.19684187
24.472345,0.20197439
23.861408,0.2048312
23.282911,0.20967081
22.734882,0.2122958
22.215462,0.2191567
21.722916,0.22787245
21.255604,0.23431818
20.812004,0.24280412
20.390675,0.25159872
19.990267,0.25409368
19.609518,0.2562851
19.247244,0.26193953
18.902327,0.2671036
18.573725,0.27229863
18.260456,0.27983528
17.961601,0.28327766
17.676302,0.292043
17.403744,0.29444548
17.143167,0.29688644
16.893862,0.29705232
16.655159,0.3004371
16.426428,0.30046222
16.207083,0.30112106
15.996571,0.3059014
15.794373,0.31009358
15.6,0.31526154
15.412999,0.32040662
15.232939,0.32591134
15.05942,0.328026
14.892062,0.33034608
14.730514,0.3352515
14.574441,0.33704668
14.423531,0.34268916
14.277491,0.34741583
14.136047,0.3537708
13.998942,0.35495156
13.865933,0.3648549
13.73679,0.3680734
13.611302,0.3706126
13.48927,0.37202606
13.3705015,0.37446114
13.254824,0.3764134
13.142069,0.38207585
13.032082,0.38976127
12.924716,0.38838866
12.819836,0.39700773
12.717309,0.39815134
12.617017,0.40027958
12.518845,0.39819437
12.422684,0.4034995
12.328438,0.40552312
12.23601,0.40537944
12.145311,0.39991075
12.056257,0.40214142
11.968773,0.40289515
11.882783,0.40556613
11.798219,0.40563974
11.7150135,0.4147237
11.633108,0.426014
11.552444,0.4352787
11.472969,0.44272766
11.394629,0.44998044
11.317378,0.44688797
11.241171,0.438411
11.165965,0.4373289
11.091721,0.43422905
11.018401,0.43250197
10.945969,0.43987828
10.874393,0.4419717
10.803641,0.43746728
10.733684,0.44505754
10.664492,0.44276658
10.596042,0.43794593
10.528306,0.4402114
10.461264,0.45359093
10.394891,0.44250584
10.329167,0.44110042
10.264075,0.45324308
10.199594,0.460953
10.135705,0.45353466
10.072394,0.45652968
10.0096445,0.46011758
9.947442,0.4622642
9.885775,0.46661797
9.824624,0.46212587
9.763982,0.4644007
9.703834,0.4639843
9.64417,0.45916933
9.584979,0.45851746
9.526253,0.46515808
9.467979,0.46863502
9.410151,0.47753826
9.3527565,0.4793809
9.295791,0.47528324
9.239244,0.47221464
9.183109,0.47620907
9.12738,0.4762506
9.07205,0.47835422
9.01711,0.48481464
8.962557,0.48468462
8.908382,0.47882253
8.854581,0.4835373
8.801149,0.4788769
8.74808,0.47978836
8.69537,0.48553815
8.643014,0.493692
8.591007,0.50175565
8.539344,0.5158539
8.48802,0.51143926
8.437034,0.5186642
8.38638,0.52041054
8.336055,0.51291734
8.286055,0.5160124
8.236377,0.51506627
8.187016,0.5123137
8.13797,0.5104009
8.089236,0.519225
8.04081,0.5116881
7.9926906,0.5171326
7.9448724,0.5246353
7.8973556,0.534969
7.850135,0.53540987
7.80321,0.53397346
7.7565756,0.533249
7.710231,0.5326845
7.664174,0.52830046
7.6184006,0.5339546
7.57291,0.54637384
7.5276995,0.5479177
7.482766,0.55256754
7.4381084,0.56409144
7.3937244,0.57514364
7.349611,0.5724657
7.3057675,0.57132584
7.2621903,0.5743538
7.218879,0.57014954
7.175831,0.5723547
7.133044,0.56763804
7.090517,0.56714815
7.0482473,0.575292
7.0062337,0.5702369
6.9644732,0.57469964
6.9229665,0.59451973
6.881709,0.60800993
6.840701,0.59593314
6.79994,0.6125427
6.7594247,0.5987986
6.719154,0.59135616
6.679125,0.58684933
6.6393356,0.59780884
6.599786,0.59610623
6.560474,0.60211504
6.5213976,0.60215724
6.482556,0.6091281
6.443947,0.6060116
6.4055705,0.6032895
6.367422,0.602339
6.3295035,0.61237663
6.291812,0.62089586
6.254346,0.6197355
6.217103,0.6162013
6.1800838,0.625066
6.1432858,0.61863756
6.106708,0.6168693
6.0703483,0.63014066
6.034206,0.6377686
5.9982805,0.6401346
5.9625683,0.63226897
5.92707,0.6365461
5.891784,0.6307382
5.856708,0.6422084
5.8218417,0.64255965
5.787183,0.65695524
5.752732,0.6482579
5.718485,0.6529026
5.684444,0.6504207
5.650605,0.6478858
5.616968,0.6452971
5.583532,0.6512438
5.550295,0.6465026
5.5172563,0.6451057
5.4844136,0.64976376
5.4517684,0.6595194
5.419316,0.65783703
5.387058,0.6685208
5.3549924,0.67306674
5.3231173,0.67955416
5.2914324,0.6792289
5.2599363,0.68053305
5.228627,0.6740457
5.1975055,0.68115765
5.166569,0.6984571
5.135817,0.70037556
5.105248,0.7111167
5.0748606,0.7251116
5.044654,0.7162011
5.0146275,0.70281065
4.9847803,0.70847666
4.955111,0.7091991
4.9256177,0.71993685
4.8963003,0.718311
4.867158,0.73425746
4.8381886,0.7326461
4.809392,0.7297805
4.7807665,0.7189503
4.7523127,0.7186676
4.724026,0.721125
4.695909,0.72791874
4.667959,0.7400608
4.640177,0.7510692
4.612559,0.75714165
4.585105,0.7543849
4.557816,0.750611
4.530688,0.749973
4.5037217,0.757045
4.4769163,0.770992
4.450271,0.7821396
4.423784,0.7884652
4.3974533,0.79814374
4.3712807,0.78264177
4.345264,0.7803041
4.3194017,0.79338765
4.293693,0.7977997
4.2681384,0.8039384
4.2427354,0.8224536
4.217483,0.8342702
4.192381,0.8205457
4.16743,0.8174375
4.142626,0.8363649
4.11797,0.8269027
4.09346,0.8162321
4.069097,0.8239764
4.0448785,0.851546
4.0208044,0.8555602
3.9968739,0.843229
3.9730854,0.8735177
3.949438,0.87580395
3.925932,0.87734586
3.9025662,0.8844609
3.8793387,0.92272437
3.85625,0.9116664
3.8332987,0.90764654
3.8104842,0.8901966
3.7878044,0.89782894
3.7652605,0.88892305
3.742851,0.8981282
3.7205741,0.9031151
3.6984303,0.91245204
3.6764178,0.9119856
3.6545374,0.92142266
3.632786,0.92653954
3.6111646,0.9276601
3.5896719,0.92916566
3.5683074,0.94368935
3.5470698,0.93581855
3.525958,0.94307053
3.5049734,0.9632295
3.484112,0.972751
3.4633756,0.97941446
3.4427624,0.9797908
3.4222722,0.9873557
3.4019039,0.96848905
3.3816562,0.9704199
3.3615294,0.9870388
3.3415227,0.99120873
3.321635,0.97526675
3.3018653,0.98330677
3.2822137,0.9847662
3.2626784,0.97774476
3.24326,0.97777337
3.2239568,0.9894881
3.2047691,0.99677294
3.1856952,1.0045656
3.1667347,1.0050731
3.1478868,1.0226332
3.1291518,1.0162157
3.1105278,1.0302432
3.0920146,1.0340617
3.0736122,1.0359972
3.0553188,1.0455297
3.037134,1.0685382
3.0190578,1.0600128
3.0010896,1.0687807
2.9832275,1.0888208
2.9654722,1.0909293
2.9478228,1.0949959
2.930278,1.1109755
2.9128375,1.1286039
2.895501,1.1182959
2.878268,1.1239816
2.8611374,1.1276634
2.8441086,1.1374812
2.8271809,1.1473762
2.8103547,1.16252
2.7936282,1.1528331
2.7770011,1.1565953
2.7604735,1.1740499
2.7440438,1.1646607
2.7277122,1.176962
2.711477,1.193657
2.6953394,1.1900197
2.6792972,1.1900933
2.663351,1.2048581
2.6474993,1.1868207
2.631742,1.2000011
2.6160786,1.1944087
2.6005085,1.22615
2.5850313,1.2402377
2.5696461,1.2454011
2.5543516,1.2483065
2.5391486,1.2437608
2.524037,1.241419
2.5090146,1.2395837
2.4940815,1.2446747
2.4792366,1.2357137
2.4644816,1.2490093
2.4498136,1.250555
2.4352329,1.262817
2.420739,1.2811846
2.4063315,1.2846278
2.3920097,1.3008252
2.377773,1.3012793
2.363621,1.2924689
2.3495533,1.2915475
2.3355696,1.3092368
2.3216686,1.3133199
2.3078513,1.2997719
2.294115,1.3056538
2.280461,1.3294036
2.2668889,1.3245409
2.253397,1.3440802
2.2399855,1.3800269
2.2266536,1.3765411
2.213401,1.3696811
2.2002275,1.3897716
2.1871324,1.4000862
2.174115,1.3857409
2.1611753,1.4034525
2.1483126,1.400355
2.1355262,1.4053369
2.1228166,1.3918427
2.1101818,1.3795147
2.0976226,1.375996
2.0851378,1.3863257
2.0727284,1.3784987
2.060392,1.4001544
2.0481286,1.4028612
2.0359385,1.419113
2.0238216,1.4520253
2.0117764,1.4802243
1.9998028,1.4854531
1.9879006,1.4987338
1.9760691,1.523152
1.9643079,1.4945385
1.9526169,1.4982764
1.9409955,1.4907746
1.9294431,1.4748437
1.9179596,1.4904938
1.9065444,1.4795984
1.8951972,1.4938252
1.8839173,1.495055
1.8727047,1.510215
1.8615594,1.5208182
1.8504798,1.5574124
1.8394659,1.5706878
1.8285179,1.5586321
1.8176354,1.5823562
1.8068173,1.5878086
1.7960637,1.600552
1.7853739,1.6361837
1.7747478,1.6730038
1.7641851,1.6789017
1.753685,1.71133
1.7432475,1.7107384
1.7328722,1.7176263
1.7225585,1.7355039
1.7123064,1.7509874
1.7021154,1.7648863
1.6919845,1.7599926
1.6819143,1.7817634
1.6719041,1.7507064
1.6619537,1.758565
1.6520622,1.7400639
1.6422291,1.7611024
1.6324553,1.7360353
1.6227394,1.7732977
1.6130813,1.8118451
1.6034806,1.8054726
1.5939372,1.8099
1.5844505,1.8326607
1.5750202,1.8334831
1.5656462,1.8388914
1.5563277,1.8377622
1.5470649,1.8553413
1.5378572,1.8626697
1.5287046,1.8700187
1.5196058,1.8821723
1.5105615,1.9136461
1.5015709,1.9241359
1.4926344,1.9210508
1.4837507,1.9237373
1.4749194,1.9263878
1.466141,1.9309832
1.4574152,1.960494
1.4487412,1.9822636
1.4401187,1.9699119
1.4315474,1.9756153
1.4230273,2.0027633
1.4145577,2.0137274
1.4061385,2.0092473
1.3977697,2.047271
1.3894506,2.005138
1.3811809,2.0129347
1.3729603,1.9974648
1.3647891,1.9945157
