energy,intensity
97.76732,0.035617087
92.828835,0.037699785
88.18945,0.039798412
83.8307,0.042041086
79.735245,0.043945275
75.88682,0.04561846
72.27017,0.04790137
68.87099,0.05037109
65.67586,0.053219967
62.672165,0.05502858
59.848106,0.056799572
57.19261,0.058725305
54.69525,0.06172554
52.346306,0.06505064
50.136597,0.068091586
48.057564,0.07155143
46.10113,0.07496621
44.25976,0.077986576
42.52636,0.0806869
40.894283,0.08394264
39.357292,0.0874054
37.909534,0.09020669
36.545517,0.09321563
35.260098,0.098509856
34.04844,0.102356926
32.906017,0.10723551
31.828575,0.110774264
30.812122,0.11390971
29.85292,0.11533034
28.947456,0.120192945
28.092442,0.12214389
27.284779,0.12815644
26.521572,0.13244715
25.800108,0.13924906
25.117828,0.14210573
24.472345,0.14555696
23.861408,0.14678654
23.282911,0.14980945
22.734882,0.15137504
22.215462,0.15628818
21.722916,0.16290936
21.255604,0.16669615
20.812004,0.17241398
20.390675,0.17968282
19.990267,0.18175514
19.609518,0.18120794
19.247244,0.18439214
18.902327,0.18860254
18.573725,0.1931912
18.260456,0.19746056
17.961601,0.20163605
17.676302,0.2073571
17.403744,0.21052098
17.143167,0.21389048
16.893862,0.21601458
16.655159,0.21806338
16.426428,0.21835706
16.207083,0.2206846
15.996571,0.22467902
15.794373,0.22967169
15.6,0.2345829
15.412999,0.24044642
15.232939,0.24500592
15.05942,0.24531977
14.892062,0.246808
14.730514,0.25148794
14.574441,0.25208694
14.423531,0.25583285
14.277491,0.2607909
14.136047,0.2677184
13.998942,0.26774496
13.865933,0.27576366
13.73679,0.28015476
13.611302,0.2823105
13.48927,0.28238648
13.3705015,0.2826122
13.254824,0.28496897
13.142069,0.28829864
13.032082,0.29731146
12.924716,0.29764473
12.819836,0.30325404
12.717309,0.30489892
12.617017,0.3096263
12.518845,0.30845556
12.422684,0.31236404
12.328438,0.31428042
12.23601,0.31095326
12.145311,0.30597594
12.056257,0.30594572
11.968773,0.30721053
11.882783,0.31053445
11.798219,0.31312972
11.7150135,0.32205287
11.633108,0.33356518
11.552444,0.34017158
11.472969,0.3467083
11.394629,0.353301
11.317378,0.35211688
11.241171,0.34519538
11.165965,0.34843144
11.091721,0.34892935
11.018401,0.35019603
10.945969,0.360347
10.874393,0.36231786
10.803641,0.35957885
10.733684,0.36598435
10.664492,0.3652245
10.596042,0.3604516
10.528306,0.36249453
10.461264,0.37120816
10.394891,0.36504987
10.329167,0.36680984
10.264075,0.37621573
10.199594,0.3862886
10.135705,0.3851388
10.072394,0.3856839
10.0096445,0.38316512
9.947442,0.38541502
9.885775,0.3869371
9.824624,0.3869787
9.763982,0.3823864
9.703834,0.38520584
9.64417,0.37779376
9.584979,0.3789138
9.526253,0.3841483
9.467979,0.3865126
9.410151,0.39383006
9.3527565,0.39624685
9.295791,0.3910143
9.239244,0.3864862
9.183109,0.3951792
9.12738,0.390586
9.07205,0.392808
9.01711,0.398586
8.962557,0.40149862
8.908382,0.39578307
8.854581,0.40196294
8.801149,0.39532116
8.74808,0.39639023
8.69537,0.39962876
8.643014,0.4065896
8.591007,0.41378775
8.539344,0.42684317
8.48802,0.4206918
8.437034,0.43167463
8.38638,0.43428192
8.336055,0.42156154
8.286055,0.4260347
8.236377,0.42507535
8.187016,0.42089254
8.13797,0.42110747
8.089236,0.4288547
8.04081,0.42149657
7.9926906,0.4303983
7.9448724,0.43554974
7.8973556,0.4409307
7.850135,0.44173175
7.80321,0.44233936
7.7565756,0.44687247
7.710231,0.44578868
7.664174,0.44202027
7.6184006,0.4488729
7.57291,0.45809427
7.5276995,0.45659813
7.482766,0.46069956
7.4381084,0.47323504
7.3937244,0.48059672
7.349611,0.4801198
7.3057675,0.48479146
7.2621903,0.48609942
7.218879,0.47653383
7.175831,0.47858247
7.133044,0.47534084
7.090517,0.4755272
7.0482473,0.48105955
7.0062337,0.4814551
6.9644732,0.48705482
6.9229665,0.5004714
6.881709,0.5112858
6.840701,0.5107391
6.79994,0.5223497
6.7594247,0.5119351
6.719154,0.50786555
6.679125,0.5072102
6.6393356,0.5139712
6.599786,0.51330763
6.560474,0.5157189
6.5213976,0.5145748
6.482556,0.52146924
6.443947,0.5230149
6.4055705,0.5177535
6.367422,0.5190295
6.3295035,0.52948654
6.291812,0.53427535
6.254346,0.5323637
6.217103,0.53672165
6.1800838,0.5418179
6.1432858,0.53867596
6.106708,0.5411886
6.0703483,0.5494578
6.034206,0.55732495
5.9982805,0.556544
5.9625683,0.5537838
5.92707,0.5610237
5.891784,0.5545168
5.856708,0.5682601
5.8218417,0.569167
5.787183,0.57734716
5.752732,0.57019407
5.718485,0.5784377
5.684444,0.57678825
5.650605,0.5786991
5.616968,0.57983595
5.583532,0.58591115
5.550295,0.5813025
5.5172563,0.58056873
5.4844136,0.5851055
5.4517684,0.5971396
5.419316,0.5937429
5.387058,0.61213624
5.3549924,0.6228581
5.3231173,0.62658775
5.2914324,0.6188041
5.2599363,0.623891
5.228627,0.6076139
5.1975055,0.60901517
5.166569,0.6247576
5.135817,0.62736666
5.105248,0.6410867
5.0748606,0.6572398
5.044654,0.6476348
5.0146275,0.634993
4.9847803,0.6364627
4.955111,0.6329411
4.9256177,0.6402716
4.8963003,0.64291805
4.867158,0.66050315
4.8381886,0.6617546
4.809392,0.6617885
4.7807665,0.64811933
4.7523127,0.6434369
4.724026,0.642675
4.695909,0.6520938
4.667959,0.66347057
4.640177,0.6696354
4.612559,0.67364496
4.585105,0.67387486
4.557816,0.6693
4.530688,0.6646468
4.5037217,0.67475754
4.4769163,0.68593943
4.450271,0.694945
4.423784,0.70534796
4.3974533,0.7224606
4.3712807,0.70850027
4.345264,0.7003671
4.3194017,0.7096076
4.293693,0.71588725
4.2681384,0.71813047
4.2427354,0.73921496
4.217483,0.7501884
4.192381,0.7397738
4.16743,0.7337409
4.142626,0.750413
4.11797,0.7362009
4.09346,0.7260525
4.069097,0.73539996
4.0448785,0.7552531
4.0208044,0.7557992
3.9968739,0.7574153
3.9730854,0.77731365
3.949438,0.7815999
3.925932,0.78553927
3.9025662,0.78316677
3.8793387,0.81408036
3.85625,0.8019951
3.8332987,0.79921424
3.8104842,0.7902689
3.7878044,0.80113965
3.7652605,0.7955147
3.742851,0.803384
3.7205741,0.81561613
3.6984303,0.8142122
3.6764178,0.8143436
3.6545374,0.82319593
3.632786,0.82532424
3.6111646,0.8326806
3.5896719,0.83361757
3.5683074,0.84593993
3.5470698,0.8452687
3.525958,0.8573368
3.5049734,0.86661613
3.484112,0.8709709
3.4633756,0.87282866
3.4427624,0.8742552
3.4222722,0.8739692
3.4019039,0.86510384
3.3816562,0.8702837
3.3615294,0.88111484
3.3415227,0.88726014
3.321635,0.88425934
3.3018653,0.8877932
3.2822137,0.8855812
3.2626784,0.8788568
3.24326,0.88008577
3.2239568,0.8853551
3.2047691,0.8970047
3.1856952,0.9114997
3.1667347,0.9077784
3.1478868,0.92614096
3.1291518,0.9093925
3.1105278,0.9246491
3.0920146,0.92078495
3.0736122,0.91069394
3.0553188,0.91614664
3.037134,0.9441226
3.0190578,0.9358152
3.0010896,0.9389968
2.9832275,0.9655674
2.9654722,0.96350706
2.9478228,0.9677968
2.930278,0.98599064
2.9128375,1.0043677
2.895501,0.99030435
2.878268,1.0033025
2.8611374,1.005246
2.8441086,1.0071766
2.8271809,1.0121791
2.8103547,1.0353048
2.7936282,1.0212144
2.7770011,1.0377958
2.7604735,1.055592
2.7440438,1.0571455
2.7277122,1.055483
2.711477,1.0752025
2.6953394,1.074091
2.6792972,1.070216
2.663351,1.0782607
2.6474993,1.0764825
2.631742,1.0862412
2.6160786,1.0921893
2.6005085,1.1154947
2.5850313,1.1221734
2.5696461,1.1175807
2.5543516,1.112324
2.5391486,1.1121156
2.524037,1.1187742
2.5090146,1.1115706
2.4940815,1.1170607
2.4792366,1.1161287
2.4644816,1.1316565
2.4498136,1.1212282
2.4352329,1.1386837
2.420739,1.1629122
2.4063315,1.1632313
2.3920097,1.1683732
2.377773,1.1655892
2.363621,1.1645749
2.3495533,1.1690733
2.3355696,1.1878958
2.3216686,1.1887486
2.3078513,1.1914575
2.294115,1.197958
2.280461,1.2166018
2.2668889,1.2193981
2.253397,1.2260542
2.2399855,1.264538
2.2266536,1.2570972
2.213401,1.2409861
2.2002275,1.268893
2.1871324,1.2711743
2.174115,1.2580628
2.1611753,1.264923
2.1483126,1.2664081
2.1355262,1.26106
2.1228166,1.2439636
2.1101818,1.251412
2.0976226,1.256826
2.0851378,1.2608664
2.0727284,1.2614033
2.060392,1.2675453
2.0481286,1.2722965
2.0359385,1.2734898
2.0238216,1.2969129
2.0117764,1.3155138
1.9998028,1.338652
1.9879006,1.3495913
1.9760691,1.3723811
1.9643079,1.3613616
1.9526169,1.3635583
1.9409955,1.3522546
1.9294431,1.3400137
1.9179596,1.3465214
1.9065444,1.327141
1.8951972,1.3496573
1.8839173,1.3423094
1.8727047,1.3557789
1.8615594,1.3654574
1.8504798,1.4050481
1.8394659,1.393709
1.8285179,1.413181
1.8176354,1.4240406
1.8068173,1.4317625
1.7960637,1.4492358
1.7853739,1.4733795
1.7747478,1.4977604
1.7641851,1.5075514
1.753685,1.5207216
1.7432475,1.5381635
1.7328722,1.5456958
1.7225585,1.5524194
1.7123064,1.5693533
1.7021154,1.5992414
1.6919845,1.5890614
1.6819143,1.6054881
1.6719041,1.6011922
1.6619537,1.5924151
1.6520622,1.5993103
1.6422291,1.6018064
1.6324553,1.5757859
1.6227394,1.6085062
1.6130813,1.6406615
1.6034806,1.6432339
1.5939372,1.63666
1.5844505,1.6464593
1.5750202,1.6498582
1.5656462,1.6467407
1.5563277,1.6341887
1.5470649,1.6627614
1.5378572,1.6783873
1.5287046,1.6855841
1.5196058,1.7042843
1.5105615,1.7231474
1.5015709,1.7286253
1.4926344,1.714633
1.4837507,1.717063
1.4749194,1.7204463
1.466141,1.7327302
1.4574152,1.7650427
1.4487412,1.785642
1.4401187,1.7700951
1.4315474,1.7624193
1.4230273,1.7852271
1.4145577,1.7948887
1.4061385,1.7859977
1.3977697,1.8060486
1.3894506,1.8137243
1.3811809,1.8077478
1.3729603,1.7868154
1.3647891,1.7889944
