energy,intensity
97.76732,0.0045289393
92.828835,0.0048011905
88.18945,0.004960382
83.8307,0.005252969
79.735245,0.0054984745
75.88682,0.005777317
72.27017,0.0059859953
68.87099,0.0063658482
65.67586,0.0067050513
62.672165,0.006956836
59.848106,0.007260826
57.19261,0.007597951
54.69525,0.007909442
52.346306,0.008282873
50.136597,0.008705905
48.057564,0.00901197
46.10113,0.009478485
44.25976,0.009872825
42.52636,0.010275248
40.894283,0.010685329
39.357292,0.011188779
37.909534,0.011564959
36.545517,0.011983352
35.260098,0.012214121
34.04844,0.012677234
32.906017,0.012896527
31.828575,0.013333092
30.812122,0.013914437
29.85292,0.01458871
28.947456,0.01524586
28.092442,0.016003039
27.284779,0.016636547
26.521572,0.01726142
25.800108,0.017556343
25.117828,0.017743928
24.472345,0.018231736
23.861408,0.0184143
23.282911,0.018767795
22.734882,0.019838141
22.215462,0.020280171
21.722916,0.020740002
21.255604,0.021583434
20.812004,0.022020198
20.390675,0.02233265
19.990267,0.023191955
19.609518,0.023938717
19.247244,0.023659376
18.902327,0.024654932
18.573725,0.025508437
18.260456,0.026317464
17.961601,0.026701404
17.676302,0.027214592
17.403744,0.027640797
17.143167,0.028202232
16.893862,0.028761799
16.655159,0.029203096
16.426428,0.029668722
16.207083,0.030339275
15.996571,0.030647682
15.794373,0.03134675
15.6,0.032047864
15.412999,0.03271957
15.232939,0.033869587
15.05942,0.03406683
14.892062,0.034514733
14.730514,0.034728818
14.574441,0.035499588
14.423531,0.03607254
14.277491,0.036475442
14.136047,0.03711457
13.998942,0.037962552
13.865933,0.03836165
13.73679,0.039357085
13.611302,0.039399613
13.48927,0.04011518
13.3705015,0.04130486
13.254824,0.04239631
13.142069,0.043460432
13.032082,0.044979595
12.924716,0.0456531
12.819836,0.046820153
12.717309,0.04776902
12.617017,0.04784156
12.518845,0.048719805
12.422684,0.04929191
12.328438,0.049943794
12.23601,0.050835747
12.145311,0.052252445
12.056257,0.052316952
11.968773,0.053508878
11.882783,0.05422224
11.798219,0.055596348
11.7150135,0.056280684
11.633108,0.056801867
11.552444,0.05803717
11.472969,0.058903676
11.394629,0.0594362
11.317378,0.060783617
11.241171,0.062316168
11.165965,0.06356022
11.091721,0.06464081
11.018401,0.06603821
10.945969,0.06784721
10.874393,0.06856107
10.803641,0.06986204
10.733684,0.0711749
10.664492,0.07200011
10.596042,0.07283097
10.528306,0.07366765
10.461264,0.07460284
10.394891,0.076384105
10.329167,0.07785504
10.264075,0.078867964
10.199594,0.08188388
10.135705,0.083164744
10.072394,0.08397607
10.0096445,0.085615665
9.947442,0.08576141
9.885775,0.086492404
9.824624,0.08786902
9.763982,0.08910937
9.703834,0.09071009
9.64417,0.09202475
9.584979,0.09350278
9.526253,0.09535053
9.467979,0.096704885
9.410151,0.09760808
9.3527565,0.09877682
9.295791,0.10042443
9.239244,0.10219257
9.183109,0.10376684
9.12738,0.10519656
9.07205,0.10711973
9.01711,0.10841711
8.962557,0.10950944
8.908382,0.11180682
8.854581,0.11358039
8.801149,0.11471029
8.74808,0.11662446
8.69537,0.11900281
8.643014,0.12000393
8.591007,0.123042375
8.539344,0.12429735
8.48802,0.126647
8.437034,0.12781428
8.38638,0.1299149
8.336055,0.13145466
8.286055,0.13306643
8.236377,0.13510418
8.187016,0.13757561
8.13797,0.13900001
8.089236,0.14073572
8.04081,0.14290878
7.9926906,0.1456481
7.9448724,0.14743935
7.8973556,0.15151627
7.850135,0.15446417
7.80321,0.15601388
7.7565756,0.15645221
7.710231,0.15890056
7.664174,0.16029793
7.6184006,0.16240564
7.57291,0.16517238
7.5276995,0.16719408
7.482766,0.1696871
7.4381084,0.17396238
7.3937244,0.17323762
7.349611,0.1741456
7.3057675,0.17658319
7.2621903,0.17857668
7.218879,0.18085602
7.175831,0.18335871
7.133044,0.18554522
7.090517,0.18781957
7.0482473,0.18983947
7.0062337,0.19097787
6.9644732,0.1930273
6.9229665,0.19516425
6.881709,0.19753103
6.840701,0.1994942
6.79994,0.20239983
6.7594247,0.20418638
6.719154,0.20641953
6.679125,0.20707636
6.6393356,0.20948483
6.599786,0.21206143
6.560474,0.21643355
6.5213976,0.21877043
6.482556,0.22202422
6.443947,0.22463253
6.4055705,0.22507077
6.367422,0.22702788
6.3295035,0.22930641
6.291812,0.23114204
6.254346,0.23283651
6.217103,0.23578972
6.1800838,0.23822117
6.1432858,0.23972696
6.106708,0.24132152
6.0703483,0.24508135
6.034206,0.24598727
5.9982805,0.2471375
5.9625683,0.24894272
5.92707,0.25255874
5.891784,0.25415358
5.856708,0.2562547
5.8218417,0.25920397
5.787183,0.26167712
5.752732,0.2634969
5.718485,0.26465133
5.684444,0.26955986
5.650605,0.27023107
5.616968,0.27115932
5.583532,0.27156848
5.550295,0.27328196
5.5172563,0.273777
5.4844136,0.2760348
5.4517684,0.27830973
5.419316,0.2801551
5.387058,0.28075358
5.3549924,0.28288704
5.3231173,0.28439894
5.2914324,0.28619343
5.2599363,0.28763086
5.228627,0.29027972
5.1975055,0.29145864
5.166569,0.29339135
5.135817,0.29684597
5.105248,0.29881322
5.0748606,0.30060244
5.044654,0.3018262
5.0146275,0.3031505
4.9847803,0.30273038
4.955111,0.3046408
4.9256177,0.3066616
4.8963003,0.30760732
4.867158,0.3080557
4.8381886,0.3087988
4.809392,0.30933824
4.7807665,0.3090625
4.7523127,0.30887422
4.724026,0.31174913
4.695909,0.31351265
4.667959,0.315286
4.640177,0.31654733
4.612559,0.31896782
4.585105,0.31908152
4.557816,0.32152337
4.530688,0.3218447
4.5037217,0.3225885
4.4769163,0.32419536
4.450271,0.32766044
4.423784,0.32754165
4.3974533,0.32950285
4.3712807,0.33347055
4.345264,0.33334887
4.3194017,0.33590558
4.293693,0.33633727
4.2681384,0.34028053
4.2427354,0.3382074
4.217483,0.33977297
4.192381,0.33972746
4.16743,0.34141266
4.142626,0.34474328
4.11797,0.34739557
4.09346,0.34722707
4.069097,0.34930605
4.0448785,0.35163704
4.0208044,0.3504893
3.9968739,0.35404232
3.9730854,0.35750332
3.949438,0.3576813
3.925932,0.35908252
3.9025662,0.3612324
3.8793387,0.36002356
3.85625,0.36217916
3.8332987,0.3630839
3.8104842,0.36767334
3.7878044,0.36910743
3.7652605,0.3695162
3.742851,0.37056366
3.7205741,0.37017825
3.6984303,0.37147772
3.6764178,0.37185714
3.6545374,0.3758068
3.632786,0.37899044
3.6111646,0.38193038
3.5896719,0.3828676
3.5683074,0.38543147
3.5470698,0.38814887
3.525958,0.389099
3.5049734,0.391705
3.484112,0.3912695
3.4633756,0.39235324
3.4427624,0.39470243
3.4222722,0.3983397
3.4019039,0.3990158
3.3816562,0.4011184
3.3615294,0.40395242
3.3415227,0.40724087
3.321635,0.4070539
3.3018653,0.4099313
3.2822137,0.417404
3.2626784,0.41693354
3.24326,0.41703993
3.2239568,0.41788402
3.2047691,0.41978136
3.1856952,0.41864505
3.1667347,0.4213046
3.1478868,0.4218265
3.1291518,0.42357805
3.1105278,0.42299932
3.0920146,0.42286852
3.0736122,0.4247699
3.0553188,0.42572755
3.037134,0.42668155
3.0190578,0.42843395
3.0010896,0.43003052
2.9832275,0.43244287
2.9654722,0.4374825
2.9478228,0.43911582
2.930278,0.44455546
2.9128375,0.4478825
2.895501,0.45140076
2.878268,0.45141038
2.8611374,0.4529279
2.8441086,0.45240346
2.8271809,0.45357004
2.8103547,0.4559409
2.7936282,0.45711014
2.7770011,0.46246374
2.7604735,0.46540815
2.7440438,0.46996012
2.7277122,0.4734843
2.711477,0.47721264
2.6953394,0.47593603
2.6792972,0.4791473
2.663351,0.4816523
2.6474993,0.4839872
2.631742,0.48872578
2.6160786,0.4936889
2.6005085,0.49496824
2.5850313,0.49755687
2.5696461,0.5007244
2.5543516,0.50353295
2.5391486,0.50712013
2.524037,0.51034826
2.5090146,0.51359695
2.4940815,0.5188087
2.4792366,0.52152437
2.4644816,0.5242536
2.4498136,0.5256129
2.4352329,0.52657163
2.420739,0.5265224
2.4063315,0.52927226
2.3920097,0.5294034
2.377773,0.53420293
2.363621,0.54088575
2.3495533,0.5418562
2.3355696,0.5434411
2.3216686,0.546069
2.3078513,0.5476591
2.294115,0.5490377
2.280461,0.55062556
2.2668889,0.5519989
2.253397,0.55702376
2.2399855,0.5601425
2.2266536,0.56458414
2.213401,0.56971556
2.2002275,0.57378715
2.1871324,0.5756721
2.174115,0.5773364
2.1611753,0.5789998
2.1483126,0.5811135
2.1355262,0.5877688
2.1228166,0.59334177
2.1101818,0.5971239
2.0976226,0.6018539
2.0851378,0.60708374
2.0727284,0.6095498
2.060392,0.61155355
2.0481286,0.6197094
2.0359385,0.6191368
2.0238216,0.62092876
2.0117764,0.6229608
1.9998028,0.6232993
1.9879006,0.62459415
1.9760691,0.6295597
1.9643079,0.63061637
1.9526169,0.6329034
1.9409955,0.63893914
1.9294431,0.6467819
1.9179596,0.64863384
1.9065444,0.6596321
1.8951972,0.6594917
1.8839173,0.662669
1.8727047,0.6661192
1.8615594,0.66984713
1.8504798,0.6728106
1.8394659,0.6792094
1.8285179,0.68513054
1.8176354,0.6857677
1.8068173,0.68987364
1.7960637,0.69265544
1.7853739,0.6995162
1.7747478,0.70288557
1.7641851,0.7024258
1.753685,0.70635515
1.7432475,0.71058434
1.7328722,0.71204334
1.7225585,0.71518165
1.7123064,0.725688
1.7021154,0.72889435
1.6919845,0.7352629
1.6819143,0.73534465
1.6719041,0.7298957
1.6619537,0.73426574
1.6520622,0.7392486
1.6422291,0.7336451
1.6324553,0.74219215
1.6227394,0.7451433
1.6130813,0.752608
1.6034806,0.7522802
1.5939372,0.7580002
1.5844505,0.7600927
1.5750202,0.7634132
1.5656462,0.7695312
1.5563277,0.7735161
1.5470649,0.7781475
1.5378572,0.78249145
1.5287046,0.7868594
1.5196058,0.7864701
1.5105615,0.7892547
1.5015709,0.79494816
1.4926344,0.80165493
1.4837507,0.80939317
1.4749194,0.8083274
1.466141,0.8125065
1.4574152,0.81670624
1.4487412,0.8192554
1.4401187,0.8221422
1.4315474,0.8290952
1.4230273,0.82725054
1.4145577,0.8342585
1.4061385,0.8354637
1.3977697,0.8418523
1.3894506,0.84166276
1.3811809,0.8460006
1.3729603,0.8517718
1.3647891,0.85900116
