energy,intensity
97.76732,0.004895615
92.828835,0.0051821545
88.18945,0.0054657585
83.8307,0.005749949
79.735245,0.0060756635
75.88682,0.006371008
72.27017,0.0066496157
68.87099,0.0071325633
65.67586,0.007678723
62.672165,0.008054471
59.848106,0.008385972
57.19261,0.008758397
54.69525,0.009122874
52.346306,0.009439698
50.136597,0.00988473
48.057564,0.01038292
46.10113,0.011012698
44.25976,0.011624103
42.52636,0.012052342
40.894283,0.012438578
39.357292,0.012985876
37.909534,0.013481805
36.545517,0.013958485
35.260098,0.014316215
34.04844,0.014754537
32.906017,0.015252057
31.828575,0.015798802
30.812122,0.016304264
29.85292,0.017168917
28.947456,0.018023925
28.092442,0.018831164
27.284779,0.019477366
26.521572,0.020165723
25.800108,0.020504307
25.117828,0.020887686
24.472345,0.021418829
23.861408,0.0217439
23.282911,0.022263348
22.734882,0.023055712
22.215462,0.0236602
21.722916,0.02399596
21.255604,0.024797017
20.812004,0.025279002
20.390675,0.025730064
19.990267,0.026342379
19.609518,0.027669104
19.247244,0.02813956
18.902327,0.028960576
18.573725,0.029864173
18.260456,0.030933637
17.961601,0.031232558
17.676302,0.032367002
17.403744,0.033235766
17.143167,0.033910498
16.893862,0.034669
16.655159,0.035544015
16.426428,0.03624539
16.207083,0.03688539
15.996571,0.037279937
15.794373,0.037726518
15.6,0.038693447
15.412999,0.03976009
15.232939,0.04096153
15.05942,0.042044703
14.892062,0.042907577
14.730514,0.042983487
14.574441,0.044042096
14.423531,0.04473801
14.277491,0.04573851
14.136047,0.046950106
13.998942,0.04789441
13.865933,0.048842967
13.73679,0.050324872
13.611302,0.050931204
13.48927,0.051787004
13.3705015,0.05293544
13.254824,0.053433973
13.142069,0.055108864
13.032082,0.056986548
12.924716,0.05745994
12.819836,0.05895031
12.717309,0.06007315
12.617017,0.060281895
12.518845,0.061683364
12.422684,0.0627068
12.328438,0.062793225
12.23601,0.06354468
12.145311,0.06517595
12.056257,0.06525556
11.968773,0.06597538
11.882783,0.06743128
11.798219,0.06906429
11.7150135,0.06934806
11.633108,0.07054426
11.552444,0.071540035
11.472969,0.07199339
11.394629,0.07240333
11.317378,0.073839255
11.241171,0.075460315
11.165965,0.076532565
11.091721,0.07730692
11.018401,0.07870067
10.945969,0.080239385
10.874393,0.08116846
10.803641,0.082596846
10.733684,0.08345112
10.664492,0.083447434
10.596042,0.08412366
10.528306,0.08443483
10.461264,0.08585579
10.394891,0.0876157
10.329167,0.088313885
10.264075,0.08967631
10.199594,0.09290304
10.135705,0.095257096
10.072394,0.09551916
10.0096445,0.09737631
9.947442,0.09715731
9.885775,0.09702831
9.824624,0.09684328
9.763982,0.098337844
9.703834,0.09884753
9.64417,0.09996138
9.584979,0.10022488
9.526253,0.10175811
9.467979,0.1026914
9.410151,0.10306508
9.3527565,0.104163714
9.295791,0.10547952
9.239244,0.106964014
9.183109,0.10772338
9.12738,0.10944263
9.07205,0.11037711
9.01711,0.109437875
8.962557,0.11032022
8.908382,0.11186121
8.854581,0.11297857
8.801149,0.114545144
8.74808,0.1157938
8.69537,0.1172757
8.643014,0.118210316
8.591007,0.12033566
8.539344,0.121687725
8.48802,0.12265182
8.437034,0.124139465
8.38638,0.12627566
8.336055,0.1266893
8.286055,0.1280969
8.236377,0.12957531
8.187016,0.13100745
8.13797,0.13191606
8.089236,0.13259101
8.04081,0.13501625
7.9926906,0.13704133
7.9448724,0.13902467
7.8973556,0.14157876
7.850135,0.14360291
7.80321,0.14465271
7.7565756,0.14521012
7.710231,0.14689979
7.664174,0.14759293
7.6184006,0.14936996
7.57291,0.15231428
7.5276995,0.15329342
7.482766,0.15583247
7.4381084,0.1581358
7.3937244,0.15928164
7.349611,0.15964444
7.3057675,0.1612656
7.2621903,0.1624334
7.218879,0.16394481
7.175831,0.1653334
7.133044,0.16693637
7.090517,0.16814257
7.0482473,0.16935714
7.0062337,0.1709259
6.9644732,0.17236815
6.9229665,0.1739614
6.881709,0.1757787
6.840701,0.17697407
6.79994,0.17824863
6.7594247,0.17989041
6.719154,0.18154535
6.679125,0.18234326
6.6393356,0.18299824
6.599786,0.18585655
6.560474,0.18903783
6.5213976,0.19135913
6.482556,0.19325303
6.443947,0.19621515
6.4055705,0.19663443
6.367422,0.19750817
6.3295035,0.19976291
6.291812,0.20211455
6.254346,0.20363514
6.217103,0.20617963
6.1800838,0.20764986
6.1432858,0.20873594
6.106708,0.20982759
6.0703483,0.21196222
6.034206,0.21299092
5.9982805,0.21329744
5.9625683,0.21611866
5.92707,0.21986505
5.891784,0.22151074
5.856708,0.2240781
5.8218417,0.2269179
5.787183,0.22802576
5.752732,0.23057029
5.718485,0.23228996
5.684444,0.23632295
5.650605,0.2373095
5.616968,0.23950683
5.583532,0.23920584
5.550295,0.24133654
5.5172563,0.24260612
5.4844136,0.24450059
5.4517684,0.24667554
5.419316,0.24904662
5.387058,0.25017822
5.3549924,0.25276187
5.3231173,0.2556405
5.2914324,0.25753748
5.2599363,0.26000062
5.228627,0.26266932
5.1975055,0.26414892
5.166569,0.26685578
5.135817,0.27081186
5.105248,0.27281296
5.0748606,0.27540115
5.044654,0.276378
5.0146275,0.27822605
4.9847803,0.2771708
4.955111,0.2802969
4.9256177,0.28384393
4.8963003,0.28623608
4.867158,0.28665596
4.8381886,0.28987437
4.809392,0.29181147
4.7807665,0.29386273
4.7523127,0.2957241
4.724026,0.29872543
4.695909,0.30154568
4.667959,0.3040777
4.640177,0.30527192
4.612559,0.30741486
4.585105,0.3084103
4.557816,0.31068197
4.530688,0.31307685
4.5037217,0.31527415
4.4769163,0.3182439
4.450271,0.32221758
4.423784,0.32414684
4.3974533,0.32641822
4.3712807,0.3290376
4.345264,0.33045018
4.3194017,0.33265308
4.293693,0.3355475
4.2681384,0.33959958
4.2427354,0.33980596
4.217483,0.34241492
4.192381,0.34423402
4.16743,0.34676
4.142626,0.3480176
4.11797,0.3513954
4.09346,0.35101414
4.069097,0.35371104
4.0448785,0.35678703
4.0208044,0.35820034
3.9968739,0.3608298
3.9730854,0.3638438
3.949438,0.36491832
3.925932,0.36611605
3.9025662,0.36830807
3.8793387,0.36826554
3.85625,0.37147543
3.8332987,0.37193033
3.8104842,0.3765727
3.7878044,0.37882754
3.7652605,0.3780078
3.742851,0.3797533
3.7205741,0.38137606
3.6984303,0.38365948
3.6764178,0.38516602
3.6545374,0.38906282
3.632786,0.39125898
3.6111646,0.39400408
3.5896719,0.39393395
3.5683074,0.39765012
3.5470698,0.39934814
3.525958,0.4006401
3.5049734,0.40345344
3.484112,0.40433964
3.4633756,0.40578142
3.4427624,0.40764815
3.4222722,0.41051352
3.4019039,0.41240177
3.3816562,0.41515753
3.3615294,0.41677856
3.3415227,0.41985384
3.321635,0.42193013
3.3018653,0.42474985
3.2822137,0.4302449
3.2626784,0.43311793
3.24326,0.4334706
3.2239568,0.43801937
3.2047691,0.43958378
3.1856952,0.43902227
3.1667347,0.4418039
3.1478868,0.44275633
3.1291518,0.44463313
3.1105278,0.44511494
3.0920146,0.44715327
3.0736122,0.44809672
3.0553188,0.45046252
3.037134,0.45140514
3.0190578,0.45282418
3.0010896,0.4553739
2.9832275,0.45907477
2.9654722,0.46411052
2.9478228,0.46656057
2.930278,0.47166857
2.9128375,0.47582322
2.895501,0.47867215
2.878268,0.4766571
2.8611374,0.47781774
2.8441086,0.47795337
2.8271809,0.48047242
2.8103547,0.4824872
2.7936282,0.4848558
2.7770011,0.48793328
2.7604735,0.48962623
2.7440438,0.49361703
2.7277122,0.4976381
2.711477,0.50240433
2.6953394,0.5073894
2.6792972,0.5097042
2.663351,0.51221025
2.6474993,0.5128983
2.631742,0.5156011
2.6160786,0.518503
2.6005085,0.52142113
2.5850313,0.523606
2.5696461,0.5269295
2.5543516,0.5291363
2.5391486,0.53249526
2.524037,0.5351075
2.5090146,0.53831136
2.4940815,0.5428942
2.4792366,0.5441908
2.4644816,0.546073
2.4498136,0.5463763
2.4352329,0.5480562
2.420739,0.5489361
2.4063315,0.5516188
2.3920097,0.5502634
2.377773,0.5541694
2.363621,0.55994695
2.3495533,0.5620624
2.3355696,0.56397575
2.3216686,0.5681871
2.3078513,0.5720087
2.294115,0.5716327
2.280461,0.5722937
2.2668889,0.5748653
2.253397,0.5772323
2.2399855,0.58176976
2.2266536,0.5865584
2.213401,0.59116465
2.2002275,0.59448403
2.1871324,0.5980434
2.174115,0.5996188
2.1611753,0.60096735
2.1483126,0.60546756
2.1355262,0.60977334
2.1228166,0.61273944
2.1101818,0.6173265
2.0976226,0.62240845
2.0851378,0.6275291
2.0727284,0.63058496
2.060392,0.6310689
2.0481286,0.63555706
2.0359385,0.6367449
2.0238216,0.6388816
2.0117764,0.6417436
1.9998028,0.6419522
1.9879006,0.6426277
1.9760691,0.64451414
1.9643079,0.64812654
1.9526169,0.6522552
1.9409955,0.65790766
1.9294431,0.66335326
1.9179596,0.6680828
1.9065444,0.6713205
1.8951972,0.6735506
1.8839173,0.675012
1.8727047,0.6772427
1.8615594,0.6805168
1.8504798,0.68328226
1.8394659,0.6905338
1.8285179,0.6933436
1.8176354,0.694563
1.8068173,0.70006233
1.7960637,0.70236564
1.7853739,0.7062998
1.7747478,0.7088908
1.7641851,0.7120367
1.753685,0.71409005
1.7432475,0.71919924
1.7328722,0.72294617
1.7225585,0.73036844
1.7123064,0.73332673
1.7021154,0.73487115
1.6919845,0.7395576
1.6819143,0.7373609
1.6719041,0.7385884
1.6619537,0.73922104
1.6520622,0.7465794
1.6422291,0.74397
1.6324553,0.751095
1.6227394,0.75559205
1.6130813,0.76191807
1.6034806,0.7658757
1.5939372,0.76863766
1.5844505,0.7726284
1.5750202,0.7751013
1.5656462,0.7806704
1.5563277,0.78378826
1.5470649,0.7856627
1.5378572,0.7906817
1.5287046,0.79478174
1.5196058,0.79507756
1.5105615,0.80047935
1.5015709,0.804627
1.4926344,0.8123653
1.4837507,0.8162498
1.4749194,0.81850946
1.466141,0.82274944
1.4574152,0.82468385
1.4487412,0.82794946
1.4401187,0.83055204
1.4315474,0.8338328
1.4230273,0.83337826
1.4145577,0.8407654
1.4061385,0.845455
1.3977697,0.85398275
1.3894506,0.8559579
1.3811809,0.8607321
1.3729603,0.8623572
1.3647891,0.87106985
