energy,intensity
97.76732,0.0048906594
92.828835,0.0052186856
88.18945,0.0054987175
83.8307,0.005732612
79.735245,0.0059845275
75.88682,0.0063390895
72.27017,0.0065825833
68.87099,0.007062222
65.67586,0.0074057993
62.672165,0.0077220886
59.848106,0.008021715
57.19261,0.008351818
54.69525,0.008777443
52.346306,0.009143551
50.136597,0.009643168
48.057564,0.010009941
46.10113,0.010518807
44.25976,0.011011155
42.52636,0.01147137
40.894283,0.011704108
39.357292,0.012284268
37.909534,0.012830078
36.545517,0.01316313
35.260098,0.0134643875
34.04844,0.013943534
32.906017,0.01433929
31.828575,0.014748592
30.812122,0.015376632
29.85292,0.01606543
28.947456,0.017086744
28.092442,0.017796485
27.284779,0.018571854
26.521572,0.01939855
25.800108,0.019865897
25.117828,0.020212647
24.472345,0.021003118
23.861408,0.021155128
23.282911,0.021368654
22.734882,0.02256562
22.215462,0.022787934
21.722916,0.023103917
21.255604,0.024022108
20.812004,0.02462724
20.390675,0.025207384
19.990267,0.026172744
19.609518,0.02732324
19.247244,0.027686505
18.902327,0.02824297
18.573725,0.02913387
18.260456,0.030111214
17.961601,0.030477364
17.676302,0.031188525
17.403744,0.03198316
17.143167,0.03263885
16.893862,0.032948457
16.655159,0.033624284
16.426428,0.034004014
16.207083,0.03473324
15.996571,0.035069183
15.794373,0.03610091
15.6,0.037078634
15.412999,0.037654225
15.232939,0.038735367
15.05942,0.039632045
14.892062,0.040207554
14.730514,0.040319633
14.574441,0.041283235
14.423531,0.04144647
14.277491,0.04248117
14.136047,0.04345455
13.998942,0.04384554
13.865933,0.044510696
13.73679,0.045352343
13.611302,0.045734875
13.48927,0.046220437
13.3705015,0.047935374
13.254824,0.04882885
13.142069,0.04957955
13.032082,0.05111318
12.924716,0.0519126
12.819836,0.053093076
12.717309,0.054244876
12.617017,0.054752864
12.518845,0.055801384
12.422684,0.056974277
12.328438,0.057252638
12.23601,0.058120616
12.145311,0.059113078
12.056257,0.059830986
11.968773,0.06091593
11.882783,0.06204981
11.798219,0.06368532
11.7150135,0.064881995
11.633108,0.06583852
11.552444,0.06642404
11.472969,0.066841945
11.394629,0.06738652
11.317378,0.06900224
11.241171,0.07046123
11.165965,0.071499825
11.091721,0.072546214
11.018401,0.074391924
10.945969,0.0761234
10.874393,0.077337235
10.803641,0.0783818
10.733684,0.07943427
10.664492,0.07972251
10.596042,0.08156337
10.528306,0.08213414
10.461264,0.08303098
10.394891,0.08467964
10.329167,0.08521845
10.264075,0.08637246
10.199594,0.089388326
10.135705,0.09119446
10.072394,0.09171956
10.0096445,0.09360128
9.947442,0.09355349
9.885775,0.093990065
9.824624,0.094476454
9.763982,0.096005924
9.703834,0.09645124
9.64417,0.09775116
9.584979,0.09886025
9.526253,0.10028335
9.467979,0.10115639
9.410151,0.10182952
9.3527565,0.10302419
9.295791,0.10443725
9.239244,0.10544345
9.183109,0.10661555
9.12738,0.1079565
9.07205,0.10973632
9.01711,0.11035122
8.962557,0.111347206
8.908382,0.11273129
8.854581,0.11533115
8.801149,0.1166368
8.74808,0.11751049
8.69537,0.12017278
8.643014,0.12106888
8.591007,0.123662665
8.539344,0.1254887
8.48802,0.12767431
8.437034,0.12890524
8.38638,0.13095467
8.336055,0.13238451
8.286055,0.1339434
8.236377,0.13575119
8.187016,0.1377531
8.13797,0.13905953
8.089236,0.1408555
8.04081,0.14290878
7.9926906,0.14582993
7.9448724,0.14841494
7.8973556,0.15090284
7.850135,0.15378533
7.80321,0.1559518
7.7565756,0.15707678
7.710231,0.15908907
7.664174,0.1601715
7.6184006,0.16234204
7.57291,0.16549224
7.5276995,0.16777325
7.482766,0.17020504
7.4381084,0.17292032
7.3937244,0.17336866
7.349611,0.1742115
7.3057675,0.17638424
7.2621903,0.17804302
7.218879,0.18031918
7.175831,0.1824811
7.133044,0.18466234
7.090517,0.18590651
7.0482473,0.1871589
7.0062337,0.1874515
6.9644732,0.18885373
6.9229665,0.189986
6.881709,0.19182898
6.840701,0.19304976
6.79994,0.19506189
6.7594247,0.19673276
6.719154,0.19827233
6.679125,0.19888037
6.6393356,0.20051004
6.599786,0.20259245
6.560474,0.20698169
6.5213976,0.20963334
6.482556,0.212384
6.443947,0.2140324
6.4055705,0.21433154
6.367422,0.214094
6.3295035,0.21637158
6.291812,0.21797577
6.254346,0.21866186
6.217103,0.22215348
6.1800838,0.22473845
6.1432858,0.22529604
6.106708,0.22545557
6.0703483,0.22848186
6.034206,0.2284053
5.9982805,0.22912717
5.9625683,0.23074323
5.92707,0.23449548
5.891784,0.23540653
5.856708,0.23772627
5.8218417,0.24206242
5.787183,0.24351211
5.752732,0.244802
5.718485,0.2466069
5.684444,0.25029948
5.650605,0.2509411
5.616968,0.25356507
5.583532,0.2537821
5.550295,0.25687283
5.5172563,0.25735742
5.4844136,0.25951687
5.4517684,0.2621372
5.419316,0.2645115
5.387058,0.26591554
5.3549924,0.26796016
5.3231173,0.27001974
5.2914324,0.27090418
5.2599363,0.27252635
5.228627,0.2744362
5.1975055,0.27617273
5.166569,0.27810767
5.135817,0.28156513
5.105248,0.28419998
5.0748606,0.28666544
5.044654,0.28857395
5.0146275,0.29001203
4.9847803,0.2907767
4.955111,0.2923222
4.9256177,0.29633468
4.8963003,0.29781216
4.867158,0.2994958
4.8381886,0.30229044
4.809392,0.3041004
4.7807665,0.3046039
4.7523127,0.3073451
4.724026,0.3100058
4.695909,0.31206834
4.667959,0.31538978
4.640177,0.31633854
4.612559,0.31949297
4.585105,0.32056075
4.557816,0.32311773
4.530688,0.3248386
4.5037217,0.3277517
4.4769163,0.32938945
4.450271,0.33440962
4.423784,0.3355358
4.3974533,0.33754486
4.3712807,0.34222573
4.345264,0.34249088
4.3194017,0.34499013
4.293693,0.34728152
4.2681384,0.35219833
4.2427354,0.35088164
4.217483,0.3556245
4.192381,0.35544273
4.16743,0.3574546
4.142626,0.36017954
4.11797,0.3635125
4.09346,0.362257
4.069097,0.36549747
4.0448785,0.3685242
4.0208044,0.3684415
3.9968739,0.37185952
3.9730854,0.3745737
3.949438,0.3750992
3.925932,0.37549418
3.9025662,0.37724578
3.8793387,0.37575817
3.85625,0.37800795
3.8332987,0.38001853
3.8104842,0.38381943
3.7878044,0.38624546
3.7652605,0.38842937
3.742851,0.389849
3.7205741,0.39049056
3.6984303,0.3934835
3.6764178,0.3942582
3.6545374,0.39820942
3.632786,0.40059373
3.6111646,0.40245566
3.5896719,0.4045954
3.5683074,0.4078324
3.5470698,0.41136685
3.525958,0.41204378
3.5049734,0.4161693
3.484112,0.41880018
3.4633756,0.417531
3.4427624,0.41974947
3.4222722,0.42396137
3.4019039,0.42564535
3.3816562,0.4259018
3.3615294,0.429893
3.3415227,0.43464154
3.321635,0.4366605
3.3018653,0.4400086
3.2822137,0.44633293
3.2626784,0.44737208
3.24326,0.44781014
3.2239568,0.4531961
3.2047691,0.454549
3.1856952,0.45574987
3.1667347,0.4583256
3.1478868,0.45922312
3.1291518,0.4629015
3.1105278,0.4617795
3.0920146,0.46266422
3.0736122,0.46464625
3.0553188,0.46790388
3.037134,0.46751538
3.0190578,0.47127733
3.0010896,0.4731304
2.9832275,0.47498894
2.9654722,0.4799566
2.9478228,0.48381627
2.930278,0.48836628
2.9128375,0.49311975
2.895501,0.49690893
2.878268,0.4955079
2.8611374,0.49796674
2.8441086,0.49839324
2.8271809,0.49760765
2.8103547,0.5009317
2.7936282,0.5032373
2.7770011,0.5079949
2.7604735,0.50805295
2.7440438,0.5119775
2.7277122,0.5152205
2.711477,0.52187884
2.6953394,0.5219479
2.6792972,0.5272428
2.663351,0.52839875
2.6474993,0.5317455
2.631742,0.534193
2.6160786,0.53739136
2.6005085,0.5406088
2.5850313,0.5445952
2.5696461,0.54691327
2.5543516,0.54867077
2.5391486,0.5525282
2.524037,0.55545247
2.5090146,0.5591642
2.4940815,0.5675624
2.4792366,0.56607574
2.4644816,0.5686786
2.4498136,0.5695128
2.4352329,0.57252485
2.420739,0.5739516
2.4063315,0.5769853
2.3920097,0.57881963
2.377773,0.5835077
2.363621,0.5880262
2.3495533,0.5913408
2.3355696,0.5940516
2.3216686,0.5969826
2.3078513,0.5988774
2.294115,0.60204095
2.280461,0.60160935
2.2668889,0.6041428
2.253397,0.60969484
2.2399855,0.61161506
2.2266536,0.6183231
2.213401,0.6261837
2.2002275,0.62861174
2.1871324,0.6301605
2.174115,0.6330423
2.1611753,0.6354876
2.1483126,0.63929254
2.1355262,0.64606935
2.1228166,0.65130675
2.1101818,0.652681
2.0976226,0.65681976
2.0851378,0.66307586
2.0727284,0.66470844
2.060392,0.6651615
2.0481286,0.6722191
2.0359385,0.6712472
2.0238216,0.6745479
2.0117764,0.6776234
1.9998028,0.68022704
1.9879006,0.6835688
1.9760691,0.6874164
1.9643079,0.69103897
1.9526169,0.6939361
1.9409955,0.69834054
1.9294431,0.7025217
1.9179596,0.70723313
1.9065444,0.712738
1.8951972,0.7154717
1.8839173,0.71949846
1.8727047,0.72303027
1.8615594,0.7278796
1.8504798,0.7309288
1.8394659,0.7382023
1.8285179,0.7436818
1.8176354,0.74600214
1.8068173,0.7518094
1.7960637,0.7519951
1.7853739,0.7562263
1.7747478,0.7593893
1.7641851,0.76475984
1.753685,0.7671288
1.7432475,0.7731114
1.7328722,0.7763425
1.7225585,0.7818346
1.7123064,0.7893448
1.7021154,0.79008615
1.6919845,0.79510313
1.6819143,0.793815
1.6719041,0.7965396
1.6619537,0.80130875
1.6520622,0.8066929
1.6422291,0.8085731
1.6324553,0.81875587
1.6227394,0.8224639
1.6130813,0.82738835
1.6034806,0.8323422
1.5939372,0.83671784
1.5844505,0.83714145
1.5750202,0.8409235
1.5656462,0.84595835
1.5563277,0.8504009
1.5470649,0.8558057
1.5378572,0.8615598
1.5287046,0.8654503
1.5196058,0.86585045
1.5105615,0.87744874
1.5015709,0.88012135
1.4926344,0.88798714
1.4837507,0.8936303
1.4749194,0.899638
1.466141,0.9040333
1.4574152,0.9041275
1.4487412,0.905528
1.4401187,0.9052311
1.4315474,0.9106509
1.4230273,0.90725213
1.4145577,0.9178212
1.4061385,0.91814893
1.3977697,0.9302312
1.3894506,0.9347549
1.3811809,0.9410531
1.3729603,0.9488047
1.3647891,0.95484024
