energy,intensity
97.76732,0.0046181306
92.828835,0.0049473136
88.18945,0.005174617
83.8307,0.0054263338
79.735245,0.0057171984
75.88682,0.0060262843
72.27017,0.0062809377
68.87099,0.006576871
65.67586,0.006941093
62.672165,0.0073046787
59.848106,0.0075927028
57.19261,0.007835123
54.69525,0.008219441
52.346306,0.008597529
50.136597,0.009005442
48.057564,0.009374868
46.10113,0.009835768
44.25976,0.010255918
42.52636,0.010742306
40.894283,0.011064411
39.357292,0.011484192
37.909534,0.012063339
36.545517,0.012341262
35.260098,0.012530122
34.04844,0.012876427
32.906017,0.013279301
31.828575,0.013652722
30.812122,0.014244611
29.85292,0.014702303
28.947456,0.015597302
28.092442,0.016192729
27.284779,0.016814096
26.521572,0.01744408
25.800108,0.017913105
25.117828,0.01784036
24.472345,0.018291123
23.861408,0.018657928
23.282911,0.019017478
22.734882,0.019944685
22.215462,0.020650884
21.722916,0.020985315
21.255604,0.021720182
20.812004,0.022159863
20.390675,0.022380166
19.990267,0.022949614
19.609518,0.023938715
19.247244,0.023936242
18.902327,0.024270501
18.573725,0.025273697
18.260456,0.026052168
17.961601,0.026296841
17.676302,0.027351625
17.403744,0.027640797
17.143167,0.028230488
16.893862,0.028675769
16.655159,0.02908675
16.426428,0.029137872
16.207083,0.0299208
15.996571,0.029920857
15.794373,0.03057995
15.6,0.031209406
15.412999,0.031965226
15.232939,0.032724697
15.05942,0.033423457
14.892062,0.033538826
14.730514,0.033577766
14.574441,0.03410354
14.423531,0.034393184
14.277491,0.035050355
14.136047,0.035778034
13.998942,0.036197655
13.865933,0.036370195
13.73679,0.037100054
13.611302,0.037620045
13.48927,0.038068123
13.3705015,0.038913533
13.254824,0.039947554
13.142069,0.041322432
13.032082,0.04222878
12.924716,0.0429544
12.819836,0.04417495
12.717309,0.044683456
12.617017,0.044501103
12.518845,0.045740116
12.422684,0.046445146
12.328438,0.0468002
12.23601,0.047866367
12.145311,0.049101345
12.056257,0.049705133
11.968773,0.050513677
11.882783,0.051531512
11.798219,0.05243466
11.7150135,0.052848432
11.633108,0.054469824
11.552444,0.05547917
11.472969,0.05594794
11.394629,0.055864926
11.317378,0.057915654
11.241171,0.05955805
11.165965,0.06021951
11.091721,0.061496124
11.018401,0.06304847
10.945969,0.06443936
10.874393,0.06481894
10.803641,0.06596089
10.733684,0.06720319
10.664492,0.06759378
10.596042,0.06903626
10.528306,0.07012461
10.461264,0.07094447
10.394891,0.07181691
10.329167,0.072602175
10.264075,0.073770575
10.199594,0.07675426
10.135705,0.078193985
10.072394,0.078637384
10.0096445,0.080679074
9.947442,0.081670575
9.885775,0.081935026
9.824624,0.08343119
9.763982,0.084693596
9.703834,0.08561794
9.64417,0.087102026
9.584979,0.088701285
9.526253,0.08965494
9.467979,0.09133242
9.410151,0.09256293
9.3527565,0.093752526
9.295791,0.095682025
9.239244,0.09742115
9.183109,0.09928276
9.12738,0.1004728
9.07205,0.10199336
9.01711,0.1030446
8.962557,0.1045907
8.908382,0.106858164
8.854581,0.10838282
8.801149,0.11052699
8.74808,0.11274806
8.69537,0.115047194
8.643014,0.11580016
8.591007,0.11870036
8.539344,0.12038293
8.48802,0.12305137
8.437034,0.12436916
8.38638,0.12650672
8.336055,0.1279097
8.286055,0.12967545
8.236377,0.13175158
8.187016,0.13349268
8.13797,0.13507108
8.089236,0.13738202
8.04081,0.13953489
7.9926906,0.14273876
7.9448724,0.14463446
7.8973556,0.14820378
7.850135,0.15150203
7.80321,0.15334433
7.7565756,0.15407887
7.710231,0.15632449
7.664174,0.15783277
7.6184006,0.1597349
7.57291,0.16363709
7.5276995,0.16558518
7.482766,0.1681333
7.4381084,0.1709664
7.3937244,0.17232032
7.349611,0.17368418
7.3057675,0.17552222
7.2621903,0.17797631
7.218879,0.18078892
7.175831,0.18322371
7.133044,0.18520567
7.090517,0.18713634
7.0482473,0.1896333
7.0062337,0.19111617
6.9644732,0.1928186
6.9229665,0.1953042
6.881709,0.19823502
6.840701,0.2006273
6.79994,0.20204362
6.7594247,0.20404302
6.719154,0.2062032
6.679125,0.20714894
6.6393356,0.20977671
6.599786,0.2128689
6.560474,0.21613818
6.5213976,0.2186219
6.482556,0.22209898
6.443947,0.22523394
6.4055705,0.2259027
6.367422,0.22718005
6.3295035,0.23060755
6.291812,0.23283598
6.254346,0.23461804
6.217103,0.23758192
6.1800838,0.24049443
6.1432858,0.24130411
6.106708,0.24338412
6.0703483,0.24659762
6.034206,0.2473521
5.9982805,0.24899508
5.9625683,0.25170514
5.92707,0.2557464
5.891784,0.2571136
5.856708,0.25931522
5.8218417,0.2634478
5.787183,0.2653604
5.752732,0.26796007
5.718485,0.26998842
5.684444,0.27365056
5.650605,0.27511784
5.616968,0.27805907
5.583532,0.2797242
5.550295,0.28235942
5.5172563,0.28440145
5.4844136,0.28601626
5.4517684,0.28861752
5.419316,0.29097158
5.387058,0.2927139
5.3549924,0.29564273
5.3231173,0.29841414
5.2914324,0.30129963
5.2599363,0.30347222
5.228627,0.3069572
5.1975055,0.30954084
5.166569,0.31261322
5.135817,0.31637165
5.105248,0.31855068
5.0748606,0.32112637
5.044654,0.32276112
5.0146275,0.326336
4.9847803,0.3252773
4.955111,0.3283981
4.9256177,0.33193812
4.8963003,0.33362883
4.867158,0.3343325
4.8381886,0.33703527
4.809392,0.33925477
4.7807665,0.34148872
4.7523127,0.3438392
4.724026,0.34764138
4.695909,0.35106406
4.667959,0.35358116
4.640177,0.35559374
4.612559,0.35856313
4.585105,0.35986474
4.557816,0.36201945
4.530688,0.3634386
4.5037217,0.36690548
4.4769163,0.3683448
4.450271,0.3719654
4.423784,0.37353548
4.3974533,0.37566188
4.3712807,0.38001677
4.345264,0.38028532
4.3194017,0.38076776
4.293693,0.3840631
4.2681384,0.3878381
4.2427354,0.3886759
4.217483,0.39134777
4.192381,0.39311323
4.16743,0.39569932
4.142626,0.39830244
4.11797,0.4009225
4.09346,0.4020213
4.069097,0.40478548
4.0448785,0.40756842
4.0208044,0.40856293
3.9968739,0.41088787
3.9730854,0.41249445
3.949438,0.414719
3.925932,0.41559795
3.9025662,0.41696903
3.8793387,0.41634366
3.85625,0.4182083
3.8332987,0.4198276
3.8104842,0.42246836
3.7878044,0.42435846
3.7652605,0.42509797
3.742851,0.42583105
3.7205741,0.42681825
3.6984303,0.43055266
3.6764178,0.43115398
3.6545374,0.43545866
3.632786,0.4385994
3.6111646,0.44001812
3.5896719,0.44157305
3.5683074,0.44421688
3.5470698,0.4461937
3.525958,0.44735396
3.5049734,0.4512763
3.484112,0.45300502
3.4633756,0.45250013
3.4427624,0.4545059
3.4222722,0.45779335
3.4019039,0.45967993
3.3816562,0.462289
3.3615294,0.4653451
3.3415227,0.4687112
3.321635,0.4702049
3.3018653,0.471553
3.2822137,0.4776235
3.2626784,0.4798893
3.24326,0.48141825
3.2239568,0.4843007
3.2047691,0.48674685
3.1856952,0.48631567
3.1667347,0.48861554
3.1478868,0.48923272
3.1291518,0.4913878
3.1105278,0.49183798
3.0920146,0.49305937
3.0736122,0.49490818
3.0553188,0.49692
3.037134,0.49686474
3.0190578,0.4996791
3.0010896,0.5026708
2.9832275,0.5038942
2.9654722,0.5091983
2.9478228,0.51372606
2.930278,0.5159753
2.9128375,0.51856583
2.895501,0.5208341
2.878268,0.52159613
2.8611374,0.5235339
2.8441086,0.5236025
2.8271809,0.52399594
2.8103547,0.5264437
2.7936282,0.52699447
2.7770011,0.52997535
2.7604735,0.5324465
2.7440438,0.53563446
2.7277122,0.5391968
2.711477,0.5436758
2.6953394,0.54441464
2.6792972,0.5474936
2.663351,0.5485888
2.6474993,0.5505926
2.631742,0.55352104
2.6160786,0.55720544
2.6005085,0.56165946
2.5850313,0.5627734
2.5696461,0.56595427
2.5543516,0.56611896
2.5391486,0.56912696
2.524037,0.57215047
2.5090146,0.57518995
2.4940815,0.58057624
2.4792366,0.5830755
2.4644816,0.5859767
2.4498136,0.58731
2.4352329,0.58664894
2.420739,0.58776
2.4063315,0.5890646
2.3920097,0.58955365
2.377773,0.59287983
2.363621,0.599299
2.3495533,0.6024749
2.3355696,0.6046301
2.3216686,0.6082503
2.3078513,0.61063254
2.294115,0.6134441
2.280461,0.61478025
2.2668889,0.6141869
2.253397,0.61850923
2.2399855,0.6228612
2.2266536,0.626373
2.213401,0.6301234
2.2002275,0.63411635
2.1871324,0.636141
2.174115,0.63683033
2.1611753,0.63997084
2.1483126,0.6442535
2.1355262,0.6487915
2.1228166,0.653817
2.1101818,0.6588795
2.0976226,0.66328645
2.0851378,0.66493446
2.0727284,0.66704565
2.060392,0.6665723
2.0481286,0.6724557
2.0359385,0.6729128
2.0238216,0.67670226
2.0117764,0.6790682
1.9998028,0.68046933
1.9879006,0.6816192
1.9760691,0.68422943
1.9643079,0.68758637
1.9526169,0.69095886
1.9409955,0.69384795
1.9294431,0.6995087
1.9179596,0.7052124
1.9065444,0.7112134
1.8951972,0.7129156
1.8839173,0.7148698
1.8727047,0.7175979
1.8615594,0.72189426
1.8504798,0.72359854
1.8394659,0.7281945
1.8285179,0.7325545
1.8176354,0.73667395
1.8068173,0.74108464
1.7960637,0.7444429
1.7853739,0.7470007
1.7747478,0.75201917
1.7641851,0.7545997
1.753685,0.7582891
1.7432475,0.7658861
1.7328722,0.76823515
1.7225585,0.7759285
1.7123064,0.77972543
1.7021154,0.7806939
1.6919845,0.78508204
1.6819143,0.7886305
1.6719041,0.79074454
1.6619537,0.7916895
1.6520622,0.7964297
1.6422291,0.7923486
1.6324553,0.8048082
1.6227394,0.80574596
1.6130813,0.81447446
1.6034806,0.81602776
1.5939372,0.82334507
1.5844505,0.8270517
1.5750202,0.8283126
1.5656462,0.83481914
1.5563277,0.8407514
1.5470649,0.8467246
1.5378572,0.8473841
1.5287046,0.85499275
1.5196058,0.85373616
1.5105615,0.8601305
1.5015709,0.86657107
1.4926344,0.8759786
1.4837507,0.8825293
1.4749194,0.88617134
1.466141,0.8918077
1.4574152,0.8934906
1.4487412,0.89549625
1.4401187,0.90052146
1.4315474,0.90659034
1.4230273,0.9048692
1.4145577,0.9147392
1.4061385,0.91435915
1.3977697,0.92122
1.3894506,0.9319657
1.3811809,0.93719494
1.3729603,0.9431592
1.3647891,0.9527107
