energy,intensity
97.76732,0.004241545
92.828835,0.004550694
88.18945,0.004707693
83.8307,0.0049871416
79.735245,0.005279751
75.88682,0.005604955
72.27017,0.005858633
68.87099,0.0062533026
65.67586,0.006579654
62.672165,0.006848619
59.848106,0.0069937054
57.19261,0.007250665
54.69525,0.0076082977
52.346306,0.00799598
50.136597,0.008387043
48.057564,0.008659153
46.10113,0.009131712
44.25976,0.009544462
42.52636,0.010001849
40.894283,0.010175941
39.357292,0.01083182
37.909534,0.011181591
36.545517,0.0114266025
35.260098,0.011705771
34.04844,0.012108111
32.906017,0.012513753
31.828575,0.012785156
30.812122,0.013254091
29.85292,0.013744867
28.947456,0.014425832
28.092442,0.015175297
27.284779,0.015979607
26.521572,0.01676824
25.800108,0.017124478
25.117828,0.017088173
24.472345,0.01785562
23.861408,0.018231576
23.282911,0.019100703
22.734882,0.020093841
22.215462,0.020694498
21.722916,0.020851512
21.255604,0.021606227
20.812004,0.022159861
20.390675,0.022166342
19.990267,0.023070784
19.609518,0.024383398
19.247244,0.024766836
18.902327,0.025654456
18.573725,0.026499564
18.260456,0.027564364
17.961601,0.028022993
17.676302,0.029050823
17.403744,0.029644964
17.143167,0.03043467
16.893862,0.03139997
16.655159,0.032024514
16.426428,0.032558914
16.207083,0.033328366
15.996571,0.033797245
15.794373,0.03468999
15.6,0.03599174
15.412999,0.036805585
15.232939,0.03803571
15.05942,0.03879565
14.892062,0.03949188
14.730514,0.0401552
14.574441,0.041216753
14.423531,0.041950278
14.277491,0.042956196
14.136047,0.043934334
13.998942,0.045229774
13.865933,0.04608289
13.73679,0.047291987
13.611302,0.047727987
13.48927,0.049273077
13.3705015,0.050362945
13.254824,0.051716186
13.142069,0.053265754
13.032082,0.055648312
12.924716,0.056485407
12.819836,0.058118973
12.717309,0.059501763
12.617017,0.060013134
12.518845,0.0612577
12.422684,0.062277835
12.328438,0.063146874
12.23601,0.064019784
12.145311,0.065893926
12.056257,0.06609938
11.968773,0.068039656
11.882783,0.06910278
11.798219,0.07095309
11.7150135,0.07232544
11.633108,0.073875755
11.552444,0.07523026
11.472969,0.07621587
11.394629,0.07746263
11.317378,0.079746395
11.241171,0.08119203
11.165965,0.08212936
11.091721,0.08363998
11.018401,0.08617505
10.945969,0.08811727
10.874393,0.08909821
10.803641,0.09107177
10.733684,0.09329012
10.664492,0.09412254
10.596042,0.09610214
10.528306,0.0975947
10.461264,0.098359056
10.394891,0.100991085
10.329167,0.103275195
10.264075,0.104590915
10.199594,0.107484475
10.135705,0.109070085
10.072394,0.1106214
10.0096445,0.11218602
9.947442,0.11288755
9.885775,0.11398375
9.824624,0.11518632
9.763982,0.11694365
9.703834,0.11826758
9.64417,0.11990342
9.584979,0.12175581
9.526253,0.12387942
9.467979,0.12627922
9.410151,0.1272097
9.3527565,0.12809391
9.295791,0.13039021
9.239244,0.1316077
9.183109,0.13299248
9.12738,0.13438831
9.07205,0.13638274
9.01711,0.13753606
8.962557,0.1395083
8.908382,0.14106368
8.854581,0.14263202
8.801149,0.14415845
8.74808,0.14658354
8.69537,0.14858636
8.643014,0.14971066
8.591007,0.15253419
8.539344,0.15425126
8.48802,0.1562113
8.437034,0.15761466
8.38638,0.16012631
8.336055,0.16149981
8.286055,0.16335131
8.236377,0.16451304
8.187016,0.16568242
8.13797,0.16715719
8.089236,0.16858345
8.04081,0.17014098
7.9926906,0.1727412
7.9448724,0.17506137
7.8973556,0.17789361
7.850135,0.17995106
7.80321,0.18128155
7.7565756,0.18155952
7.710231,0.18283933
7.664174,0.183306
7.6184006,0.18466172
7.57291,0.18711434
7.5276995,0.18753023
7.482766,0.18975693
7.4381084,0.19213368
7.3937244,0.1915835
7.349611,0.1920743
7.3057675,0.19375747
7.2621903,0.19431973
7.218879,0.19622377
7.175831,0.19719842
7.133044,0.1979738
7.090517,0.19916119
7.0482473,0.2003556
7.0062337,0.20045073
6.9644732,0.20144401
6.9229665,0.20209192
6.881709,0.20393707
6.840701,0.2051596
6.79994,0.20653193
6.7594247,0.2078415
6.719154,0.20872669
6.679125,0.20816435
6.6393356,0.20948482
6.599786,0.21220826
6.560474,0.21347986
6.5213976,0.21468474
6.482556,0.21619527
6.443947,0.21734025
6.4055705,0.21765919
6.367422,0.21805023
6.3295035,0.21996883
6.291812,0.2204396
6.254346,0.22121793
6.217103,0.2235561
6.1800838,0.22473842
6.1432858,0.22553259
6.106708,0.2264075
6.0703483,0.22824246
6.034206,0.22768275
5.9982805,0.22751191
5.9625683,0.230337
5.92707,0.23179828
5.891784,0.23285763
5.856708,0.23359047
5.8218417,0.23598796
5.787183,0.23547599
5.752732,0.23671767
5.718485,0.23754235
5.684444,0.24101022
5.650605,0.24142471
5.616968,0.24261172
5.583532,0.24319695
5.550295,0.24482788
5.5172563,0.24480127
5.4844136,0.24582556
5.4517684,0.24703099
5.419316,0.24743757
5.387058,0.24801996
5.3549924,0.24896231
5.3231173,0.2499981
5.2914324,0.25021333
5.2599363,0.2508827
5.228627,0.25182906
5.1975055,0.25231165
5.166569,0.25354114
5.135817,0.2557196
5.105248,0.25706097
5.0748606,0.25831383
5.044654,0.25880426
5.0146275,0.2582286
4.9847803,0.2571508
4.955111,0.2582994
4.9256177,0.25994438
4.8963003,0.2610062
4.867158,0.2604788
4.8381886,0.260937
4.809392,0.26068625
4.7807665,0.26184183
4.7523127,0.26137078
4.724026,0.26232052
4.695909,0.2642007
4.667959,0.2647448
4.640177,0.26476386
4.612559,0.26739943
4.585105,0.26635915
4.557816,0.26752874
4.530688,0.26838216
4.5037217,0.2691286
4.4769163,0.27052355
4.450271,0.27323183
4.423784,0.27344418
4.3974533,0.27420017
4.3712807,0.2767285
4.345264,0.27660158
4.3194017,0.27814552
4.293693,0.2796981
4.2681384,0.28216732
4.2427354,0.27986035
4.217483,0.28314415
4.192381,0.28218177
4.16743,0.28270876
4.142626,0.2852201
4.11797,0.28610432
4.09346,0.28438535
4.069097,0.28561184
4.0448785,0.28660336
4.0208044,0.28542766
3.9968739,0.28689426
3.9730854,0.2878804
3.949438,0.2877642
3.925932,0.2880064
3.9025662,0.28935832
3.8793387,0.28884304
3.85625,0.29044682
3.8332987,0.29117483
3.8104842,0.2930453
3.7878044,0.29518363
3.7652605,0.29514977
3.742851,0.2953637
3.7205741,0.2960905
3.6984303,0.29786333
3.6764178,0.29674783
3.6545374,0.2991873
3.632786,0.30097872
3.6111646,0.30130515
3.5896719,0.30094987
3.5683074,0.30261597
3.5470698,0.3049742
3.525958,0.3062506
3.5049734,0.3083606
3.484112,0.30992886
3.4633756,0.31066552
3.4427624,0.311822
3.4222722,0.31439677
3.4019039,0.31428546
3.3816562,0.31473467
3.3615294,0.3153221
3.3415227,0.31836987
3.321635,0.31954676
3.3018653,0.3217535
3.2822137,0.32574633
3.2626784,0.32606342
3.24326,0.32592446
3.2239568,0.32832673
3.2047691,0.32893196
3.1856952,0.3267956
3.1667347,0.33058798
3.1478868,0.3299512
3.1291518,0.33146226
3.1105278,0.33142224
3.0920146,0.33199647
3.0736122,0.3305167
3.0553188,0.33312985
3.037134,0.33081776
3.0190578,0.33231705
3.0010896,0.3331768
2.9832275,0.33354777
2.9654722,0.3384854
2.9478228,0.34281275
2.930278,0.3461879
2.9128375,0.34975752
2.895501,0.35185164
2.878268,0.3500871
2.8611374,0.34998205
2.8441086,0.34884122
2.8271809,0.34664604
2.8103547,0.34958342
2.7936282,0.34803492
2.7770011,0.35064209
2.7604735,0.34975806
2.7440438,0.35114604
2.7277122,0.35360363
2.711477,0.36036614
2.6953394,0.3591088
2.6792972,0.3625246
2.663351,0.36414948
2.6474993,0.36523193
2.631742,0.36925945
2.6160786,0.37221107
2.6005085,0.3748122
2.5850313,0.37536964
2.5696461,0.3776171
2.5543516,0.37836087
2.5391486,0.3808171
2.524037,0.38290513
2.5090146,0.38712853
2.4940815,0.39138886
2.4792366,0.3913875
2.4644816,0.39176506
2.4498136,0.39154002
2.4352329,0.39090034
2.420739,0.39123964
2.4063315,0.3917702
2.3920097,0.3906729
2.377773,0.39423445
2.363621,0.39782467
2.3495533,0.39773235
2.3355696,0.39783204
2.3216686,0.40146604
2.3078513,0.4040796
2.294115,0.4035427
2.280461,0.40468425
2.2668889,0.4045427
2.253397,0.40524498
2.2399855,0.40745503
2.2266536,0.40924197
2.213401,0.41453755
2.2002275,0.4172397
2.1871324,0.41973788
2.174115,0.42247385
2.1611753,0.42365843
2.1483126,0.42416555
2.1355262,0.4298811
2.1228166,0.4301728
2.1101818,0.43137094
2.0976226,0.43233708
2.0851378,0.435855
2.0727284,0.4375296
2.060392,0.44014928
2.0481286,0.44467694
2.0359385,0.44305643
2.0238216,0.44594842
2.0117764,0.44380236
1.9998028,0.44573286
1.9879006,0.44791418
1.9760691,0.4493703
1.9643079,0.4515676
1.9526169,0.45030174
1.9409955,0.4552441
1.9294431,0.4582209
1.9179596,0.4617222
1.9065444,0.46626532
1.8951972,0.467779
1.8839173,0.46826547
1.8727047,0.46899965
1.8615594,0.47076663
1.8504798,0.47149092
1.8394659,0.47589424
1.8285179,0.48059815
1.8176354,0.48427513
1.8068173,0.4887834
1.7960637,0.490631
1.7853739,0.49166924
1.7747478,0.49543196
1.7641851,0.4951031
1.753685,0.4958575
1.7432475,0.5010495
1.7328722,0.501813
1.7225585,0.5048176
1.7123064,0.5098205
1.7021154,0.51230365
1.6919845,0.5165164
1.6819143,0.5135603
1.6719041,0.51460695
1.6619537,0.51797944
1.6520622,0.5204943
1.6422291,0.5191859
1.6324553,0.5234814
1.6227394,0.52900404
1.6130813,0.53487414
1.6034806,0.52871096
1.5939372,0.53309226
1.5844505,0.5338381
1.5750202,0.5348814
1.5656462,0.5390121
1.5563277,0.5431732
1.5470649,0.54548603
1.5378572,0.55001205
1.5287046,0.5529882
1.5196058,0.5531113
1.5105615,0.55642307
1.5015709,0.55878663
1.4926344,0.5624567
1.4837507,0.56647736
1.4749194,0.56888384
1.466141,0.57295096
1.4574152,0.57571644
1.4487412,0.5754851
1.4401187,0.5762395
1.4315474,0.5847658
1.4230273,0.5838414
1.4145577,0.58939195
1.4061385,0.58878666
1.3977697,0.59647083
1.3894506,0.59899616
1.3811809,0.6032841
1.3729603,0.60513204
1.3647891,0.60946494
