energy,intensity
97.76732,0.004781648
92.828835,0.0050986554
88.18945,0.0053504007
83.8307,0.005611256
79.735245,0.0059541487
75.88682,0.006326322
72.27017,0.0064887386
68.87099,0.006942644
65.67586,0.0074058
62.672165,0.0077530085
59.848106,0.008054094
57.19261,0.008368758
54.69525,0.0087065855
52.346306,0.009134296
50.136597,0.009681817
48.057564,0.010090586
46.10113,0.010655415
44.25976,0.0110658845
42.52636,0.011459978
40.894283,0.011787031
39.357292,0.012456594
37.909534,0.013072877
36.545517,0.013627086
35.260098,0.013958997
34.04844,0.014356148
32.906017,0.014736785
31.828575,0.015022562
30.812122,0.01567536
29.85292,0.01635753
28.947456,0.01728757
28.092442,0.018124135
27.284779,0.01894471
26.521572,0.019489879
25.800108,0.019828342
25.117828,0.02025122
24.472345,0.020884346
23.861408,0.021439364
23.282911,0.022013668
22.734882,0.02282132
22.215462,0.02326768
21.722916,0.02368375
21.255604,0.024455143
20.812004,0.025022952
20.390675,0.025539998
19.990267,0.026269676
19.609518,0.02742206
19.247244,0.027787184
18.902327,0.02860177
18.573725,0.029603349
18.260456,0.030827515
17.961601,0.031151641
17.676302,0.031901088
17.403744,0.03267905
17.143167,0.033345327
16.893862,0.034124162
16.655159,0.034816846
16.426428,0.035449106
16.207083,0.035898983
15.996571,0.036098856
15.794373,0.0374198
15.6,0.03816553
15.412999,0.038817164
15.232939,0.04048449
15.05942,0.04124049
14.892062,0.041769013
14.730514,0.041865334
14.574441,0.04334407
14.423531,0.044066265
14.277491,0.044652727
14.136047,0.045922004
13.998942,0.046890847
13.865933,0.047620155
13.73679,0.04880843
13.611302,0.049044862
13.48927,0.049739946
13.3705015,0.051015127
13.254824,0.052300967
13.142069,0.05396613
13.032082,0.055722658
12.924716,0.056260515
12.819836,0.057854448
12.717309,0.05881608
12.617017,0.059245218
12.518845,0.060328964
12.422684,0.061341915
12.328438,0.061850138
12.23601,0.06318835
12.145311,0.06445797
12.056257,0.06453229
11.968773,0.06573254
11.882783,0.06710512
11.798219,0.06848945
11.7150135,0.06955481
11.633108,0.07066918
11.552444,0.07170777
11.472969,0.072457865
11.394629,0.07342369
11.317378,0.074823774
11.241171,0.076537706
11.165965,0.07761721
11.091721,0.078835584
11.018401,0.081162825
10.945969,0.082762085
10.874393,0.083351366
10.803641,0.08448017
10.733684,0.08584317
10.664492,0.08594586
10.596042,0.08741546
10.528306,0.08811589
10.461264,0.08937523
10.394891,0.091437235
10.329167,0.092206635
10.264075,0.09326337
10.199594,0.095705345
10.135705,0.09740791
10.072394,0.09792398
10.0096445,0.10018338
9.947442,0.100371525
9.885775,0.10109566
9.824624,0.10202077
9.763982,0.103497855
9.703834,0.10428915
9.64417,0.10558734
9.584979,0.10649211
9.526253,0.10796225
9.467979,0.10883139
9.410151,0.10960317
9.3527565,0.11053475
9.295791,0.11215018
9.239244,0.11378035
9.183109,0.114897914
9.12738,0.11618328
9.07205,0.11795988
9.01711,0.11808762
8.962557,0.11956312
8.908382,0.12126907
8.854581,0.12195121
8.801149,0.12291176
8.74808,0.124488026
8.69537,0.1262455
8.643014,0.1275147
8.591007,0.12969635
8.539344,0.13155891
8.48802,0.1336671
8.437034,0.13447489
8.38638,0.13661571
8.336055,0.13744044
8.286055,0.13838673
8.236377,0.1395155
8.187016,0.14059336
8.13797,0.14144069
8.089236,0.14187358
8.04081,0.14351127
7.9926906,0.14698152
7.9448724,0.14871983
7.8973556,0.1521297
7.850135,0.15471104
7.80321,0.15582763
7.7565756,0.155328
7.710231,0.15720414
7.664174,0.15720068
7.6184006,0.15941694
7.57291,0.16331725
7.5276995,0.16423374
7.482766,0.16638532
7.4381084,0.16901252
7.3937244,0.16897877
7.349611,0.16999298
7.3057675,0.1712784
7.2621903,0.17263971
7.218879,0.17515185
7.175831,0.17708024
7.133044,0.17943284
7.090517,0.18112391
7.0482473,0.18248512
7.0062337,0.1835794
6.9644732,0.18523666
6.9229665,0.18648723
6.881709,0.18866117
6.840701,0.1914918
6.79994,0.1929246
6.7594247,0.19529936
6.719154,0.19755134
6.679125,0.19801001
6.6393356,0.19956149
6.599786,0.20251904
6.560474,0.20616941
6.5213976,0.20851904
6.482556,0.21021684
6.443947,0.21245366
6.4055705,0.2138021
6.367422,0.21455047
6.3295035,0.21744308
6.291812,0.21959265
6.254346,0.22083063
6.217103,0.22417945
6.1800838,0.22607102
6.1432858,0.22592686
6.106708,0.22712144
6.0703483,0.22967894
6.034206,0.2304926
5.9982805,0.23106548
5.9625683,0.23277442
5.92707,0.2371927
5.891784,0.2381199
5.856708,0.23929787
5.8218417,0.24380979
5.787183,0.24485141
5.752732,0.24690722
5.718485,0.24838592
5.684444,0.25285614
5.650605,0.25385594
5.616968,0.25649738
5.583532,0.25707904
5.550295,0.2587058
5.5172563,0.25920135
5.4844136,0.26101848
5.4517684,0.26391438
5.419316,0.26612055
5.387058,0.2670846
5.3549924,0.27031222
5.3231173,0.27347803
5.2914324,0.27484095
5.2599363,0.27759185
5.228627,0.28092185
5.1975055,0.28279036
5.166569,0.2857026
5.135817,0.28911123
5.105248,0.29112706
5.0748606,0.2940158
5.044654,0.29529616
5.0146275,0.2965813
4.9847803,0.29651058
4.955111,0.2984815
4.9256177,0.30154732
4.8963003,0.30364972
4.867158,0.30387527
4.8381886,0.30649582
4.809392,0.30833098
4.7807665,0.30916384
4.7523127,0.31081104
4.724026,0.31400526
4.695909,0.31671074
4.667959,0.31850326
4.640177,0.3194706
4.612559,0.32211867
4.585105,0.32172292
4.557816,0.3246058
4.530688,0.32697713
4.5037217,0.33065593
4.4769163,0.33285215
4.450271,0.3365868
4.423784,0.33816403
4.3974533,0.34029904
4.3712807,0.3441097
4.345264,0.34605855
4.3194017,0.35048583
4.293693,0.35303566
4.2681384,0.35673848
4.2427354,0.3555631
4.217483,0.35803664
4.192381,0.3594871
4.16743,0.3618719
4.142626,0.36462334
4.11797,0.36892405
4.09346,0.3685294
4.069097,0.37073582
4.0448785,0.37427312
4.0208044,0.37434527
3.9968739,0.37707144
3.9730854,0.3806704
3.949438,0.38074166
3.925932,0.3817874
3.9025662,0.38308018
3.8793387,0.38362557
3.85625,0.3862993
3.8332987,0.38810673
3.8104842,0.3915746
3.7878044,0.39430287
3.7652605,0.3966637
3.742851,0.39683834
3.7205741,0.3988238
3.6984303,0.4010807
3.6764178,0.4022962
3.6545374,0.40709084
3.632786,0.4111286
3.6111646,0.4139927
3.5896719,0.41606653
3.5683074,0.41950798
3.5470698,0.42120028
3.525958,0.42276046
3.5049734,0.42570624
3.484112,0.42686474
3.4633756,0.42886105
3.4427624,0.43086597
3.4222722,0.43556902
3.4019039,0.4373225
3.3816562,0.43965447
3.3615294,0.44185448
3.3415227,0.44580477
3.321635,0.4481822
3.3018653,0.45145258
3.2822137,0.45814073
3.2626784,0.46058688
3.24326,0.46095464
3.2239568,0.46416536
3.2047691,0.4667932
3.1856952,0.46624252
3.1667347,0.46964607
3.1478868,0.4712269
3.1291518,0.4726549
3.1105278,0.4725258
3.0920146,0.4741016
3.0736122,0.47646728
3.0553188,0.47852734
3.037134,0.47979748
3.0190578,0.48267013
3.0010896,0.48523718
2.9832275,0.48700574
2.9654722,0.49204537
2.9478228,0.4969634
2.930278,0.5017575
2.9128375,0.50642496
2.895501,0.5106283
2.878268,0.5096461
2.8611374,0.5118509
2.8441086,0.5130419
2.8271809,0.5145716
2.8103547,0.5167904
2.7936282,0.5190176
2.7770011,0.5228229
2.7604735,0.5264798
2.7440438,0.52998513
2.7277122,0.53138226
2.711477,0.5356359
2.6953394,0.5375847
2.6792972,0.54080355
2.663351,0.54385954
2.6474993,0.54656696
2.631742,0.5505758
2.6160786,0.5535019
2.6005085,0.55607086
2.5850313,0.5603372
2.5696461,0.56388056
2.5543516,0.5647914
2.5391486,0.5700809
2.524037,0.5734941
2.5090146,0.57712084
2.4940815,0.5827129
2.4792366,0.5840526
2.4644816,0.58794254
2.4498136,0.58612347
2.4352329,0.58764356
2.420739,0.58956105
2.4063315,0.5922856
2.3920097,0.59360397
2.377773,0.59899175
2.363621,0.6048329
2.3495533,0.6065985
2.3355696,0.60981554
2.3216686,0.61221486
2.3078513,0.61609006
2.294115,0.61830086
2.280461,0.6194536
2.2668889,0.6220939
2.253397,0.62452877
2.2399855,0.6280517
2.2266536,0.6322472
2.213401,0.6377837
2.2002275,0.6407217
2.1871324,0.6434504
2.174115,0.6464118
2.1611753,0.64871293
2.1483126,0.65282255
2.1355262,0.65945345
2.1228166,0.6649992
2.1101818,0.66760343
2.0976226,0.67437196
2.0851378,0.6793391
2.0727284,0.68364006
2.060392,0.6856172
2.0481286,0.6892493
2.0359385,0.6895691
2.0238216,0.69250077
2.0117764,0.6954429
1.9998028,0.69548863
1.9879006,0.696972
1.9760691,0.7013903
1.9643079,0.7036168
1.9526169,0.7065891
1.9409955,0.71156853
1.9294431,0.71859086
1.9179596,0.72238815
1.9065444,0.7282379
1.8951972,0.73157567
1.8839173,0.73312736
1.8727047,0.73622334
1.8615594,0.7393301
1.8504798,0.7419242
1.8394659,0.7487367
1.8285179,0.7511001
1.8176354,0.7539979
1.8068173,0.75636756
1.7960637,0.75900805
1.7853739,0.7624672
1.7747478,0.7662134
1.7641851,0.7691535
1.753685,0.77292997
1.7432475,0.77700204
1.7328722,0.7799768
1.7225585,0.7857718
1.7123064,0.7916082
1.7021154,0.79236317
1.6919845,0.7982528
1.6819143,0.7964075
1.6719041,0.79740894
1.6619537,0.8018917
1.6520622,0.809332
1.6422291,0.8070982
1.6324553,0.81608486
1.6227394,0.8206726
1.6130813,0.8246853
1.6034806,0.8247891
1.5939372,0.8294235
1.5844505,0.83316666
1.5750202,0.8387702
1.5656462,0.84533924
1.5563277,0.8513346
1.5470649,0.8542398
1.5378572,0.8562044
1.5287046,0.85942924
1.5196058,0.8610685
1.5105615,0.867186
1.5015709,0.8710878
1.4926344,0.8782504
1.4837507,0.88383543
1.4749194,0.8891275
1.466141,0.89048594
1.4574152,0.8951527
1.4487412,0.896165
1.4401187,0.8988397
1.4315474,0.9015142
1.4230273,0.9014649
1.4145577,0.91131437
1.4061385,0.9129812
1.3977697,0.9236462
1.3894506,0.9242952
1.3811809,0.9326353
1.3729603,0.938925
1.3647891,0.94561136
