energy,intensity
97.76732,0.0053267065
92.828835,0.0056309616
88.18945,0.005883244
83.8307,0.006281602
79.735245,0.0065981694
75.88682,0.007028537
72.27017,0.007293128
68.87099,0.007772666
65.67586,0.008217192
62.672165,0.008603289
59.848106,0.008976875
57.19261,0.009385207
54.69525,0.009734018
52.346306,0.01014305
50.136597,0.010667392
48.057564,0.011149038
46.10113,0.011706245
44.25976,0.0122479955
42.52636,0.0128269745
40.894283,0.013327046
39.357292,0.013859807
37.909534,0.014312437
36.545517,0.014780352
35.260098,0.01520926
34.04844,0.015736273
32.906017,0.016179549
31.828575,0.016788129
30.812122,0.017436285
29.85292,0.018175032
28.947456,0.018927628
28.092442,0.01986584
27.284779,0.020773489
26.521572,0.021572208
25.800108,0.021893796
25.117828,0.022025613
24.472345,0.022745132
23.861408,0.023083858
23.282911,0.023740636
22.734882,0.024568608
22.215462,0.025055824
21.722916,0.02562394
21.255604,0.026529163
20.812004,0.027094621
20.390675,0.02734562
19.990267,0.028014524
19.609518,0.029324312
19.247244,0.029146342
18.902327,0.029908841
18.573725,0.031376947
18.260456,0.032578476
17.961601,0.032958705
17.676302,0.033819545
17.403744,0.03446053
17.143167,0.03492781
16.893862,0.0353859
16.655159,0.035922144
16.426428,0.036540307
16.207083,0.03709462
15.996571,0.03752221
15.794373,0.03855466
15.6,0.039873503
15.412999,0.041017327
15.232939,0.04226543
15.05942,0.042977605
14.892062,0.04284251
14.730514,0.043049265
14.574441,0.043909132
14.423531,0.044536483
14.277491,0.04533134
14.136047,0.046333246
13.998942,0.047375325
13.865933,0.048074342
13.73679,0.049619555
13.611302,0.04961432
13.48927,0.050673697
13.3705015,0.051957164
13.254824,0.052739546
13.142069,0.054187316
13.032082,0.056020044
12.924716,0.056672815
12.819836,0.058005597
12.717309,0.058930356
12.617017,0.059590776
12.518845,0.06079333
12.422684,0.06177087
12.328438,0.062046606
12.23601,0.0629904
12.145311,0.06413888
12.056257,0.06449211
11.968773,0.06540873
11.882783,0.06686051
11.798219,0.06857155
11.7150135,0.06934805
11.633108,0.070169464
11.552444,0.07133036
11.472969,0.072120056
11.394629,0.07261589
11.317378,0.07409608
11.241171,0.07576198
11.165965,0.076966435
11.091721,0.07857351
11.018401,0.08045934
10.945969,0.08192118
10.874393,0.082638584
10.803641,0.08380754
10.733684,0.08494051
10.664492,0.08530989
10.596042,0.08672966
10.528306,0.08770178
10.461264,0.08900476
10.394891,0.0910644
10.329167,0.092441134
10.264075,0.09345217
10.199594,0.096417785
10.135705,0.09850722
10.072394,0.09903018
10.0096445,0.100812554
9.947442,0.10124814
9.885775,0.10183073
9.824624,0.10290832
9.763982,0.10493669
9.703834,0.10578683
9.64417,0.10749614
9.584979,0.10906973
9.526253,0.11030152
9.467979,0.11149206
9.410151,0.112640545
9.3527565,0.11405693
9.295791,0.11611087
9.239244,0.11834206
9.183109,0.119909525
9.12738,0.121225506
9.07205,0.123299845
9.01711,0.12388992
8.962557,0.12469806
8.908382,0.12648961
8.854581,0.12851654
8.801149,0.13028756
8.74808,0.13168707
8.69537,0.13415672
8.643014,0.13524964
8.591007,0.13838036
8.539344,0.14040893
8.48802,0.14251354
8.437034,0.14377671
8.38638,0.14626257
8.336055,0.14720365
8.286055,0.14914432
8.236377,0.15074968
8.187016,0.15242782
8.13797,0.15435843
8.089236,0.15600705
8.04081,0.15766959
7.9926906,0.16049774
7.9448724,0.16256131
7.8973556,0.16556369
7.850135,0.16828755
7.80321,0.1699204
7.7565756,0.170942
7.710231,0.17266063
7.664174,0.17350858
7.6184006,0.17480542
7.57291,0.17681506
7.5276995,0.17852053
7.482766,0.1803047
7.4381084,0.183276
7.3937244,0.18293473
7.349611,0.18416454
7.3057675,0.18659596
7.2621903,0.18884967
7.218879,0.19098932
7.175831,0.19267517
7.133044,0.19464593
7.090517,0.19547173
7.0482473,0.19609417
7.0062337,0.19747749
6.9644732,0.19956586
6.9229665,0.20048247
6.881709,0.20252915
6.840701,0.20452228
6.79994,0.20610444
6.7594247,0.20798485
6.719154,0.21002446
6.679125,0.21092056
6.6393356,0.21357091
6.599786,0.2163188
6.560474,0.21783657
6.5213976,0.2205533
6.482556,0.22262208
6.443947,0.22455737
6.4055705,0.22567582
6.367422,0.22695181
6.3295035,0.22907679
6.291812,0.23091108
6.254346,0.23136482
6.217103,0.23415335
6.1800838,0.23618312
6.1432858,0.2368881
6.106708,0.23743437
6.0703483,0.23973441
6.034206,0.2407689
5.9982805,0.2413225
5.9625683,0.24325535
5.92707,0.2461835
5.891784,0.24749342
5.856708,0.24972011
5.8218417,0.2515485
5.787183,0.25338987
5.752732,0.25600207
5.718485,0.25761995
5.684444,0.2614637
5.650605,0.2636296
5.616968,0.2649496
5.583532,0.2667965
5.550295,0.26952884
5.5172563,0.27096722
5.4844136,0.27267823
5.4517684,0.27439985
5.419316,0.27631122
5.387058,0.277696
5.3549924,0.27926838
5.3231173,0.28248778
5.2914324,0.28463706
5.2599363,0.2863415
5.228627,0.288612
5.1975055,0.2910858
5.166569,0.29367265
5.135817,0.2972233
5.105248,0.29900303
5.0748606,0.301748
5.044654,0.3029786
5.0146275,0.30421317
4.9847803,0.30457687
4.955111,0.30679163
4.9256177,0.3097105
4.8963003,0.3116639
4.867158,0.31233564
4.8381886,0.3154073
4.809392,0.31790018
4.7807665,0.31889167
4.7523127,0.32182035
4.724026,0.3239525
4.695909,0.32692382
4.667959,0.32908884
4.640177,0.33137244
4.612559,0.33377662
4.585105,0.33630344
4.557816,0.3386359
4.530688,0.33991507
4.5037217,0.34205785
4.4769163,0.3448634
4.450271,0.34856102
4.423784,0.349991
4.3974533,0.35230696
4.3712807,0.35607874
4.345264,0.35720733
4.3194017,0.36001903
4.293693,0.36319008
4.2681384,0.3672942
4.2427354,0.3669813
4.217483,0.37055698
4.192381,0.3716202
4.16743,0.37535632
4.142626,0.3773699
4.11797,0.3799823
4.09346,0.38012725
4.069097,0.38347468
4.0448785,0.38648933
4.0208044,0.387719
3.9968739,0.3908888
3.9730854,0.39457047
3.949438,0.39644235
3.925932,0.39721188
3.9025662,0.39909354
3.8793387,0.4003592
3.85625,0.40187693
3.8332987,0.4036512
3.8104842,0.40695795
3.7878044,0.40926674
3.7652605,0.41081655
3.742851,0.4128879
3.7205741,0.414058
3.6984303,0.41653714
3.6764178,0.4192947
3.6545374,0.42392603
3.632786,0.4257975
3.6111646,0.4286152
3.5896719,0.43064168
3.5683074,0.43362734
3.5470698,0.4370431
3.525958,0.43869817
3.5049734,0.4431215
3.484112,0.44438428
3.4633756,0.4462057
3.4427624,0.44789228
3.4222722,0.45057392
3.4019039,0.45270205
3.3816562,0.45440978
3.3615294,0.45684236
3.3415227,0.46262205
3.321635,0.4661212
3.3018653,0.46964568
3.2822137,0.47659028
3.2626784,0.47914693
3.24326,0.47947645
3.2239568,0.48384994
3.2047691,0.4849329
3.1856952,0.48570737
3.1667347,0.4890745
3.1478868,0.49015605
3.1291518,0.4909233
3.1105278,0.49230528
3.0920146,0.49290276
3.0736122,0.49380484
3.0553188,0.49723712
3.037134,0.49686474
3.0190578,0.50000006
3.0010896,0.50299364
2.9832275,0.5061677
2.9654722,0.5123022
2.9478228,0.51701283
2.930278,0.52258825
2.9128375,0.52638245
2.895501,0.5315419
2.878268,0.5311898
2.8611374,0.5338623
2.8441086,0.5333114
2.8271809,0.5330776
2.8103547,0.53713113
2.7936282,0.53618526
2.7770011,0.541489
2.7604735,0.5435026
2.7440438,0.5471099
2.7277122,0.5496752
2.711477,0.55832636
2.6953394,0.5575353
2.6792972,0.56268156
2.663351,0.56259453
2.6474993,0.56578004
2.631742,0.57174474
2.6160786,0.5792419
2.6005085,0.5812197
2.5850313,0.5854493
2.5696461,0.588389
2.5543516,0.58755
2.5391486,0.58935076
2.524037,0.5932632
2.5090146,0.5983599
2.4940815,0.6048561
2.4792366,0.6065237
2.4644816,0.60799277
2.4498136,0.60609597
2.4352329,0.6081335
2.420739,0.6093732
2.4063315,0.61362565
2.3920097,0.6118315
2.377773,0.619162
2.363621,0.62368906
2.3495533,0.62680477
2.3355696,0.6276538
2.3216686,0.6314118
2.3078513,0.63456243
2.294115,0.6375173
2.280461,0.6383603
2.2668889,0.6394041
2.253397,0.64344746
2.2399855,0.64600223
2.2266536,0.649435
2.213401,0.65244794
2.2002275,0.65415263
2.1871324,0.65718323
2.174115,0.65911275
2.1611753,0.6614899
2.1483126,0.66793114
2.1355262,0.6730644
2.1228166,0.6777789
2.1101818,0.6811484
2.0976226,0.6852266
2.0851378,0.6902588
2.0727284,0.69252163
2.060392,0.6926709
2.0481286,0.69847405
2.0359385,0.698373
2.0238216,0.69944257
2.0117764,0.7009814
1.9998028,0.7029983
1.9879006,0.7030645
1.9760691,0.7045773
1.9643079,0.7070695
1.9526169,0.7093181
1.9409955,0.7148131
1.9294431,0.7228592
1.9179596,0.726177
1.9065444,0.7330658
1.8951972,0.73362064
1.8839173,0.7346702
1.8727047,0.7377755
1.8615594,0.74245286
1.8504798,0.7445421
1.8394659,0.7503169
1.8285179,0.7577236
1.8176354,0.75932854
1.8068173,0.7638748
1.7960637,0.76521176
1.7853739,0.77223533
1.7747478,0.77412945
1.7641851,0.7760184
1.753685,0.78066474
1.7432475,0.78561676
1.7328722,0.79004097
1.7225585,0.7970212
1.7123064,0.80122745
1.7021154,0.8028939
1.6919845,0.8062697
1.6819143,0.8044723
1.6719041,0.80668104
1.6619537,0.8112194
1.6520622,0.81519675
1.6422291,0.81388295
1.6324553,0.8229104
1.6227394,0.8314199
1.6130813,0.8369987
1.6034806,0.8395932
1.5939372,0.8440121
1.5844505,0.8481483
1.5750202,0.8492279
1.5656462,0.8536937
1.5563277,0.8616065
1.5470649,0.86645216
1.5378572,0.8665998
1.5287046,0.87368953
1.5196058,0.8782833
1.5105615,0.8829005
1.5015709,0.88754165
1.4926344,0.8957764
1.4837507,0.8991806
1.4749194,0.90357935
1.466141,0.9079982
1.4574152,0.9111077
1.4487412,0.9102093
1.4401187,0.9153227
1.4315474,0.91775763
1.4230273,0.91984814
1.4145577,0.9250132
1.4061385,0.9281399
1.3977697,0.93369704
1.3894506,0.9382414
1.3811809,0.9442099
1.3729603,0.9456292
1.3647891,0.95413035
