energy,intensity
97.76732,0.005287066
92.828835,0.0055735554
88.18945,0.005822818
83.8307,0.0061255735
79.735245,0.006488808
75.88682,0.0068561756
72.27017,0.007185876
68.87099,0.007582745
65.67586,0.008047537
62.672165,0.008386852
59.848106,0.008823078
57.19261,0.009190386
54.69525,0.009592301
52.346306,0.010050503
50.136597,0.010638405
48.057564,0.01099783
46.10113,0.011580145
44.25976,0.012072868
42.52636,0.012564966
40.894283,0.013007198
39.357292,0.013601322
37.909534,0.0140313
36.545517,0.014435697
35.260098,0.014852043
34.04844,0.0154517125
32.906017,0.016047047
31.828575,0.016559822
30.812122,0.017043222
29.85292,0.017931618
28.947456,0.018961098
28.092442,0.01971064
27.284779,0.020560427
26.521572,0.02148088
25.800108,0.022213
25.117828,0.022295628
24.472345,0.023101453
23.861408,0.023388393
23.282911,0.02396951
22.734882,0.02497347
22.215462,0.025971701
21.722916,0.026382176
21.255604,0.027531981
20.812004,0.028165367
20.390675,0.028628552
19.990267,0.0294928
19.609518,0.030534832
19.247244,0.031109564
18.902327,0.031933516
18.573725,0.033020124
18.260456,0.03374578
17.961601,0.03468486
17.676302,0.035272084
17.403744,0.036242012
17.143167,0.037329804
16.893862,0.038196124
16.655159,0.039383464
16.426428,0.040167794
16.207083,0.040950548
15.996571,0.041792292
15.794373,0.042848732
15.6,0.04363106
15.412999,0.044789035
15.232939,0.045700092
15.05942,0.04658052
14.892062,0.04703893
14.730514,0.047916565
14.574441,0.048795316
14.423531,0.049507376
14.277491,0.050556663
14.136047,0.051713657
13.998942,0.05298147
13.865933,0.05397882
13.73679,0.055367943
13.611302,0.05573604
13.48927,0.056778956
13.3705015,0.058297824
13.254824,0.059720315
13.142069,0.060822487
13.032082,0.06252536
12.924716,0.06349454
12.819836,0.064920925
12.717309,0.06632046
12.617017,0.06707802
12.518845,0.068455376
12.422684,0.0698822
12.328438,0.07069149
12.23601,0.07193813
12.145311,0.07339275
12.056257,0.07441706
11.968773,0.07548718
11.882783,0.07652266
11.798219,0.077728115
11.7150135,0.07898318
11.633108,0.08024721
11.552444,0.08135268
11.472969,0.082760714
11.394629,0.08379737
11.317378,0.08569634
11.241171,0.08752707
11.165965,0.08920123
11.091721,0.091283314
11.018401,0.0929899
10.945969,0.09493298
10.874393,0.096627
10.803641,0.09752885
10.733684,0.09902203
10.664492,0.10002791
10.596042,0.10199993
10.528306,0.103346385
10.461264,0.105027474
10.394891,0.10695639
10.329167,0.10829355
10.264075,0.1095939
10.199594,0.11247158
10.135705,0.11418426
10.072394,0.115094356
10.0096445,0.11799376
9.947442,0.1184394
9.885775,0.118492156
9.824624,0.11952554
9.763982,0.12101211
9.703834,0.12206172
9.64417,0.12387173
9.584979,0.12605187
9.526253,0.12799856
9.467979,0.1291957
9.410151,0.13076189
9.3527565,0.13192688
9.295791,0.13393398
9.239244,0.13564506
9.183109,0.13710728
9.12738,0.13831596
9.07205,0.13990714
9.01711,0.14113565
8.962557,0.14280549
8.908382,0.14514218
8.854581,0.1474466
8.801149,0.14916737
8.74808,0.15068145
8.69537,0.15226342
8.643014,0.15380234
8.591007,0.15636869
8.539344,0.15827915
8.48802,0.16049184
8.437034,0.162323
8.38638,0.16434318
8.336055,0.16562591
8.286055,0.16691767
8.236377,0.16845383
8.187016,0.1698245
8.13797,0.17126466
8.089236,0.17265578
8.04081,0.1742981
7.9926906,0.17698394
7.9448724,0.17859794
7.8973556,0.18102208
7.850135,0.18353032
7.80321,0.18562733
7.7565756,0.18586898
7.710231,0.18736318
7.664174,0.18798347
7.6184006,0.19000316
7.57291,0.19255185
7.5276995,0.19460925
7.482766,0.19720219
7.4381084,0.19903748
7.3937244,0.19990467
7.349611,0.20011583
7.3057675,0.20211248
7.2621903,0.20332527
7.218879,0.2057531
7.175831,0.20752753
7.133044,0.20999484
7.090517,0.21152762
7.0482473,0.21245252
7.0062337,0.21303509
6.9644732,0.21424292
6.9229665,0.2159473
6.881709,0.21843864
6.840701,0.22066875
6.79994,0.22427125
6.7594247,0.2255439
6.719154,0.22653511
6.679125,0.22694992
6.6393356,0.22823705
6.599786,0.23202708
6.560474,0.2351158
6.5213976,0.23749036
6.482556,0.23966064
6.443947,0.24184836
6.4055705,0.24261662
6.367422,0.24376583
6.3295035,0.2464508
6.291812,0.24854317
6.254346,0.24987711
6.217103,0.2525428
6.1800838,0.25491783
6.1432858,0.25644478
6.106708,0.25782216
6.0703483,0.26024428
6.034206,0.2615622
5.9982805,0.26224035
5.9625683,0.2642985
5.92707,0.26702574
5.891784,0.26796716
5.856708,0.26965472
5.8218417,0.2732667
5.787183,0.275573
5.752732,0.27772856
5.718485,0.28032368
5.684444,0.28362164
5.650605,0.28540584
5.616968,0.28720126
5.583532,0.2878799
5.550295,0.290564
5.5172563,0.2912503
5.4844136,0.29228774
5.4517684,0.29465997
5.419316,0.2960669
5.387058,0.29828942
5.3549924,0.30161348
5.3231173,0.30378357
5.2914324,0.30551106
5.2599363,0.3066036
5.228627,0.30927345
5.1975055,0.31065932
5.166569,0.31289452
5.135817,0.31825817
5.105248,0.32063827
5.0748606,0.32389465
5.044654,0.32535392
5.0146275,0.3276885
4.9847803,0.3263463
4.955111,0.3285936
4.9256177,0.33223313
4.8963003,0.33451927
4.867158,0.33572593
4.8381886,0.3380365
4.809392,0.33955696
4.7807665,0.3400701
4.7523127,0.3426159
4.724026,0.34579548
4.695909,0.34724697
4.667959,0.35005262
4.640177,0.3516265
4.612559,0.35331175
4.585105,0.35405368
4.557816,0.35702386
4.530688,0.35937545
4.5037217,0.36206502
4.4769163,0.3648821
4.450271,0.36880848
4.423784,0.3716738
4.3974533,0.37235698
4.3712807,0.3759163
4.345264,0.37805554
4.3194017,0.3789733
4.293693,0.3814681
4.2681384,0.3877246
4.2427354,0.3862781
4.217483,0.3892801
4.192381,0.3909177
4.16743,0.39349064
4.142626,0.3956128
4.11797,0.39856964
4.09346,0.39929932
4.069097,0.40264246
4.0448785,0.404694
4.0208044,0.40591222
3.9968739,0.41016066
3.9730854,0.41225058
3.949438,0.41324702
3.925932,0.4135002
3.9025662,0.41659656
3.8793387,0.4170929
3.85625,0.42046958
3.8332987,0.42248157
3.8104842,0.4257739
3.7878044,0.42857903
3.7652605,0.42947248
3.742851,0.43126726
3.7205741,0.43293795
3.6984303,0.4346132
3.6764178,0.43642485
3.6545374,0.4400983
3.632786,0.4442003
3.6111646,0.4465916
3.5896719,0.44805086
3.5683074,0.45086923
3.5470698,0.4537053
3.525958,0.45394883
3.5049734,0.45804882
3.484112,0.46065238
3.4633756,0.4629908
3.4427624,0.46435583
3.4222722,0.46940097
3.4019039,0.47007534
3.3816562,0.47160062
3.3615294,0.47298318
3.3415227,0.476395
3.321635,0.47880974
3.3018653,0.48182333
3.2822137,0.48751253
3.2626784,0.49028298
3.24326,0.4912767
3.2239568,0.4934668
3.2047691,0.4973283
3.1856952,0.49772078
3.1667347,0.5013128
3.1478868,0.50277543
3.1291518,0.5036182
3.1105278,0.50367457
3.0920146,0.5044968
3.0736122,0.5048379
3.0553188,0.5081775
3.037134,0.5080302
3.0190578,0.5102696
3.0010896,0.51364756
2.9832275,0.516723
2.9654722,0.5224306
2.9478228,0.528188
2.930278,0.5339956
2.9128375,0.5371929
2.895501,0.5407439
2.878268,0.5391004
2.8611374,0.5438521
2.8441086,0.5435314
2.8271809,0.54455817
2.8103547,0.547991
2.7936282,0.55040485
2.7770011,0.55370045
2.7604735,0.55490965
2.7440438,0.5580556
2.7277122,0.56228477
2.711477,0.56833154
2.6953394,0.5690382
2.6792972,0.5722645
2.663351,0.57441753
2.6474993,0.5771249
2.631742,0.582053
2.6160786,0.58757496
2.6005085,0.5907204
2.5850313,0.5942572
2.5696461,0.59668404
2.5543516,0.597412
2.5391486,0.6013706
2.524037,0.604971
2.5090146,0.6091724
2.4940815,0.6159276
2.4792366,0.61844313
2.4644816,0.6197869
2.4498136,0.61875194
2.4352329,0.62146187
2.420739,0.62278134
2.4063315,0.62590617
2.3920097,0.62560326
2.377773,0.63138634
2.363621,0.63885593
2.3495533,0.63958824
2.3355696,0.64155084
2.3216686,0.64434886
2.3078513,0.6456877
2.294115,0.64849794
2.280461,0.651531
2.2668889,0.65222627
2.253397,0.6565613
2.2399855,0.66049236
2.2266536,0.6666227
2.213401,0.67280275
2.2002275,0.67595035
2.1871324,0.67844695
2.174115,0.6773842
2.1611753,0.68031913
2.1483126,0.682814
2.1355262,0.6912125
2.1228166,0.69580734
2.1101818,0.6999734
2.0976226,0.7039335
2.0851378,0.7097746
2.0727284,0.71285546
2.060392,0.7150075
2.0481286,0.71952516
2.0359385,0.71955025
2.0238216,0.72266144
2.0117764,0.72313535
1.9998028,0.72770745
1.9879006,0.7293837
1.9760691,0.73350555
1.9643079,0.73567784
1.9526169,0.7393383
1.9409955,0.7462608
1.9294431,0.7532398
1.9179596,0.7544662
1.9065444,0.760508
1.8951972,0.7635278
1.8839173,0.7660421
1.8727047,0.7714048
1.8615594,0.7736811
1.8504798,0.7741248
1.8394659,0.78007674
1.8285179,0.78766155
1.8176354,0.7878465
1.8068173,0.79390436
1.7960637,0.7981183
1.7853739,0.8042536
1.7747478,0.80579346
1.7641851,0.80814654
1.753685,0.81270903
1.7432475,0.8164634
1.7328722,0.8193949
1.7225585,0.83020693
1.7123064,0.83546054
1.7021154,0.8404627
1.6919845,0.8429182
1.6819143,0.8384601
1.6719041,0.838844
1.6619537,0.84240884
1.6520622,0.84862554
1.6422291,0.8489869
1.6324553,0.8603019
1.6227394,0.862766
1.6130813,0.8697337
1.6034806,0.8740349
1.5939372,0.8774444
1.5844505,0.8811692
1.5750202,0.8867528
1.5656462,0.8908243
1.5563277,0.89709187
1.5470649,0.90340257
1.5378572,0.90345633
1.5287046,0.9094991
1.5196058,0.9114381
1.5105615,0.91753674
1.5015709,0.9230303
1.4926344,0.9288812
1.4837507,0.9367283
1.4749194,0.9367532
1.466141,0.9417011
1.4574152,0.9430181
1.4487412,0.9469923
1.4401187,0.9482892
1.4315474,0.953967
1.4230273,0.9549126
1.4145577,0.9616575
1.4061385,0.96500385
1.3977697,0.9718212
1.3894506,0.97973186
1.3811809,0.9859486
1.3729603,0.98938185
1.3647891,0.9970804
