energy,intensity
97.76732,0.0049055247
92.828835,0.005192592
88.18945,0.005443785
83.8307,0.00569216
79.735245,0.0059966794
75.88682,0.0063199387
72.27017,0.006569178
68.87099,0.0070059504
65.67586,0.007420552
62.672165,0.0076911696
59.848106,0.008037905
57.19261,0.008368758
54.69525,0.008733156
52.346306,0.009226843
50.136597,0.009691479
48.057564,0.0101309065
46.10113,0.0105083
44.25976,0.010890755
42.52636,0.011323278
40.894283,0.01163303
39.357292,0.012198106
37.909534,0.012727845
36.545517,0.013255919
35.260098,0.013615518
34.04844,0.014156954
32.906017,0.0146926185
31.828575,0.015296527
30.812122,0.015785418
29.85292,0.016519807
28.947456,0.017438184
28.092442,0.018262092
27.284779,0.019051243
26.521572,0.019709071
25.800108,0.020016111
25.117828,0.020019779
24.472345,0.020904142
23.861408,0.021398759
23.282911,0.02199286
22.734882,0.022863936
22.215462,0.023354908
21.722916,0.023706049
21.255604,0.024637477
20.812004,0.024999676
20.390675,0.025658786
19.990267,0.02641508
19.609518,0.027496172
19.247244,0.027787184
18.902327,0.028345484
18.573725,0.029499022
18.260456,0.03085404
17.961601,0.031313468
17.676302,0.032147754
17.403744,0.032901734
17.143167,0.033571396
16.893862,0.034382246
16.655159,0.035224058
16.426428,0.03589149
16.207083,0.036616363
15.996571,0.037219364
15.794373,0.037941225
15.6,0.03847607
15.412999,0.039068613
15.232939,0.040389083
15.05942,0.04124049
14.892062,0.041703947
14.730514,0.042161312
14.574441,0.0429452
14.423531,0.043461695
14.277491,0.044347353
14.136047,0.045270864
13.998942,0.046129517
13.865933,0.0472009
13.73679,0.04806784
13.611302,0.048617765
13.48927,0.049991343
13.3705015,0.051631074
13.254824,0.052995387
13.142069,0.05499828
13.032082,0.056726336
12.924716,0.057909727
12.819836,0.059441566
12.717309,0.06053028
12.617017,0.06055067
12.518845,0.062379915
12.422684,0.06333074
12.328438,0.064836554
12.23601,0.06619732
12.145311,0.06736977
12.056257,0.067947745
11.968773,0.06893012
11.882783,0.06991815
11.798219,0.0717743
11.7150135,0.07327654
11.633108,0.07475027
11.552444,0.07644636
11.472969,0.07769374
11.394629,0.07818537
11.317378,0.079832
11.241171,0.082571074
11.165965,0.083951555
11.091721,0.08516864
11.018401,0.08740611
10.945969,0.089046694
10.874393,0.09030103
10.803641,0.09183405
10.733684,0.093154736
10.664492,0.0947585
10.596042,0.09619359
10.528306,0.09773274
10.461264,0.099053696
10.394891,0.101177484
10.329167,0.10224338
10.264075,0.10364695
10.199594,0.106629536
10.135705,0.108926706
10.072394,0.11014044
10.0096445,0.11233123
9.947442,0.11298495
9.885775,0.11354273
9.824624,0.114643924
9.763982,0.11629865
9.703834,0.11771844
9.64417,0.12005411
9.584979,0.121604174
9.526253,0.12342175
9.467979,0.124846555
9.410151,0.1258197
9.3527565,0.12685078
9.295791,0.12830561
9.239244,0.12987739
9.183109,0.13119884
9.12738,0.13263683
9.07205,0.13430017
9.01711,0.13495728
8.962557,0.13529225
8.908382,0.13812709
8.854581,0.13978702
8.801149,0.14091091
8.74808,0.14187649
8.69537,0.14379506
8.643014,0.14472218
8.591007,0.14762828
8.539344,0.1489753
8.48802,0.15107465
8.437034,0.1519876
8.38638,0.15359879
8.336055,0.15458418
8.286055,0.15621856
8.236377,0.15804307
8.187016,0.15958767
8.13797,0.16072805
8.089236,0.16163649
8.04081,0.16327266
7.9926906,0.16637704
7.9448724,0.16774423
7.8973556,0.17096187
7.850135,0.1732862
7.80321,0.1746387
7.7565756,0.17531392
7.710231,0.17687036
7.664174,0.17749079
7.6184006,0.17970178
7.57291,0.1824445
7.5276995,0.18418378
7.482766,0.18651986
7.4381084,0.18894233
7.3937244,0.18902822
7.349611,0.18937176
7.3057675,0.19123763
7.2621903,0.19158468
7.218879,0.1932039
7.175831,0.19497055
7.133044,0.1966834
7.090517,0.19793136
7.0482473,0.19987445
7.0062337,0.19969012
6.9644732,0.20200045
6.9229665,0.20328155
6.881709,0.20534499
6.840701,0.20728418
6.79994,0.20859794
6.7594247,0.21106665
6.719154,0.21218748
6.679125,0.21338661
6.6393356,0.21619771
6.599786,0.21896134
6.560474,0.22064263
6.5213976,0.22345042
6.482556,0.22576076
6.443947,0.22824107
6.4055705,0.22968414
6.367422,0.23083197
6.3295035,0.23320982
6.291812,0.23506884
6.254346,0.23585734
6.217103,0.23867281
6.1800838,0.24088636
6.1432858,0.24288127
6.106708,0.24401875
6.0703483,0.24667744
6.034206,0.24759296
5.9982805,0.24883357
5.9625683,0.25040516
5.92707,0.25427517
5.891784,0.2564558
5.856708,0.25799173
5.8218417,0.26053533
5.787183,0.2621794
5.752732,0.2645074
5.718485,0.26643035
5.684444,0.27024165
5.650605,0.27203143
5.616968,0.27409175
5.583532,0.27417138
5.550295,0.27747154
5.5172563,0.27825508
5.4844136,0.28142303
5.4517684,0.28381908
5.419316,0.2870383
5.387058,0.28857726
5.3549924,0.29021475
5.3231173,0.29222563
5.2914324,0.294067
5.2599363,0.29444635
5.228627,0.2982478
5.1975055,0.299288
5.166569,0.30154893
5.135817,0.30637303
5.105248,0.3083024
5.0748606,0.3102439
5.044654,0.31190956
5.0146275,0.31387383
4.9847803,0.31196293
4.955111,0.31304875
4.9256177,0.31757867
4.8963003,0.31918338
4.867158,0.31990013
4.8381886,0.3227167
4.809392,0.32394394
4.7807665,0.32446495
4.7523127,0.32722315
4.724026,0.33000287
4.695909,0.33208194
4.667959,0.3344854
4.640177,0.3353397
4.612559,0.33923808
4.585105,0.34021276
4.557816,0.3429937
4.530688,0.34504744
4.5037217,0.34636047
4.4769163,0.3484343
4.450271,0.35258874
4.423784,0.35415232
4.3974533,0.3556119
4.3712807,0.35873848
4.345264,0.35954854
4.3194017,0.3612527
4.293693,0.36296442
4.2681384,0.36740765
4.2427354,0.36629623
4.217483,0.3697529
4.192381,0.37104243
4.16743,0.37233394
4.142626,0.3747972
4.11797,0.37692362
4.09346,0.3775236
4.069097,0.37918872
4.0448785,0.38349518
4.0208044,0.3820562
3.9968739,0.38373768
3.9730854,0.38664493
3.949438,0.38736537
3.925932,0.38882095
3.9025662,0.39052823
3.8793387,0.3909933
3.85625,0.39295742
3.8332987,0.39455193
3.8104842,0.3955158
3.7878044,0.39852345
3.7652605,0.40039495
3.742851,0.40033302
3.7205741,0.40077686
3.6984303,0.40330747
3.6764178,0.40295509
3.6545374,0.4058979
3.632786,0.40726137
3.6111646,0.40795586
3.5896719,0.40945375
3.5683074,0.41081914
3.5470698,0.41491783
3.525958,0.41685253
3.5049734,0.4190718
3.484112,0.41866115
3.4633756,0.4192095
3.4427624,0.41946805
3.4222722,0.4233951
3.4019039,0.4246485
3.3816562,0.42475572
3.3615294,0.4271548
3.3415227,0.43072712
3.321635,0.4335977
3.3018653,0.43898147
3.2822137,0.44529977
3.2626784,0.44662967
3.24326,0.44497204
3.2239568,0.44733572
3.2047691,0.447142
3.1856952,0.4455613
3.1667347,0.44777006
3.1478868,0.44860438
3.1291518,0.45005175
3.1105278,0.449943
3.0920146,0.4499735
3.0736122,0.45298278
3.0553188,0.4534752
3.037134,0.45491436
3.0190578,0.45619392
3.0010896,0.4579567
2.9832275,0.46199784
2.9654722,0.4663976
2.9478228,0.47017604
2.930278,0.4749751
2.9128375,0.47732008
2.895501,0.48118183
2.878268,0.47968668
2.8611374,0.4808655
2.8441086,0.48033804
2.8271809,0.48167184
2.8103547,0.4836938
2.7936282,0.48433563
2.7770011,0.48740995
2.7604735,0.48664284
2.7440438,0.49149844
2.7277122,0.49302045
2.711477,0.49722308
2.6953394,0.4957067
2.6792972,0.50048286
2.663351,0.5011147
2.6474993,0.50374913
2.631742,0.5076858
2.6160786,0.51146615
2.6005085,0.5128519
2.5850313,0.5159225
2.5696461,0.52014256
2.5543516,0.5211708
2.5391486,0.5225742
2.524037,0.52378356
2.5090146,0.52769196
2.4940815,0.5324053
2.4792366,0.5355932
2.4644816,0.5380136
2.4498136,0.53985065
2.4352329,0.5393032
2.420739,0.540531
2.4063315,0.5421568
2.3920097,0.54054224
2.377773,0.54642737
2.363621,0.55256844
2.3495533,0.55360883
2.3355696,0.55484927
2.3216686,0.5592147
2.3078513,0.5617231
2.294115,0.5614967
2.280461,0.56167203
2.2668889,0.5628978
2.253397,0.565408
2.2399855,0.56576556
2.2266536,0.56980574
2.213401,0.5745306
2.2002275,0.57686967
2.1871324,0.57899463
2.174115,0.580233
2.1611753,0.58146554
2.1483126,0.58539796
2.1355262,0.59117156
2.1228166,0.5926571
2.1101818,0.5955169
2.0976226,0.60093004
2.0851378,0.6033665
2.0727284,0.6046417
2.060392,0.60614574
2.0481286,0.61024815
2.0359385,0.6103327
2.0238216,0.6135082
2.0117764,0.6171815
1.9998028,0.6194233
1.9879006,0.6209387
1.9760691,0.6258823
1.9643079,0.6274101
1.9526169,0.6289337
1.9409955,0.6317012
1.9294431,0.634479
1.9179596,0.6402986
1.9065444,0.64489454
1.8951972,0.6454327
1.8839173,0.6477544
1.8727047,0.651374
1.8615594,0.6544932
1.8504798,0.6521288
1.8394659,0.65972054
1.8285179,0.6647303
1.8176354,0.66178054
1.8068173,0.6662791
1.7960637,0.6697289
1.7853739,0.67211074
1.7747478,0.6744972
1.7641851,0.6749658
1.753685,0.67845464
1.7432475,0.68501776
1.7328722,0.6868828
1.7225585,0.69408906
1.7123064,0.6982447
1.7021154,0.6984408
1.6919845,0.7043406
1.6819143,0.70193297
1.6719041,0.7049767
1.6619537,0.7056997
1.6520622,0.7110979
1.6422291,0.7091608
1.6324553,0.7175613
1.6227394,0.7185737
1.6130813,0.7249783
1.6034806,0.726298
1.5939372,0.73125434
1.5844505,0.73471534
1.5750202,0.7369614
1.5656462,0.7401361
1.5563277,0.74705786
1.5470649,0.74933887
1.5378572,0.7538254
1.5287046,0.75707096
1.5196058,0.7584162
1.5105615,0.7645606
1.5015709,0.7688157
1.4926344,0.77406776
1.4837507,0.7770699
1.4749194,0.7797519
1.466141,0.78574234
1.4574152,0.79044664
1.4487412,0.791501
1.4401187,0.7918669
1.4315474,0.79356253
1.4230273,0.794569
1.4145577,0.7982991
1.4061385,0.8006671
1.3977697,0.8078871
1.3894506,0.8130729
1.3811809,0.816538
1.3729603,0.8203685
1.3647891,0.8320244
