energy,intensity
97.76732,0.00962895
92.828835,0.010415192
88.18945,0.011272097
83.8307,0.012144238
79.735245,0.0130505245
75.88682,0.013961318
72.27017,0.015011909
68.87099,0.01603244
65.67586,0.017116692
62.672165,0.018290685
59.848106,0.019366251
57.19261,0.020576729
54.69525,0.02183511
52.346306,0.023127262
50.136597,0.02444369
48.057564,0.025909418
46.10113,0.0274109
44.25976,0.028986376
42.52636,0.030748853
40.894283,0.032446913
39.357292,0.034360256
37.909534,0.03621877
36.545517,0.038495198
35.260098,0.040248897
34.04844,0.04239617
32.906017,0.044431187
31.828575,0.046414692
30.812122,0.048535444
29.85292,0.050593935
28.947456,0.052653454
28.092442,0.054566406
27.284779,0.056767546
26.521572,0.058908034
25.800108,0.061090447
25.117828,0.06342972
24.472345,0.065533295
23.861408,0.067667976
23.282911,0.07000471
22.734882,0.07225153
22.215462,0.0742516
21.722916,0.07643695
21.255604,0.07851059
20.812004,0.08053318
20.390675,0.08239323
19.990267,0.08431621
19.609518,0.086509176
19.247244,0.08828849
18.902327,0.0898803
18.573725,0.091959484
18.260456,0.09349731
17.961601,0.09495184
17.676302,0.096525475
17.403744,0.098287664
17.143167,0.09978164
16.893862,0.101146616
16.655159,0.102247216
16.426428,0.1036046
16.207083,0.104939535
15.996571,0.106297806
15.794373,0.107497595
15.6,0.108860254
15.412999,0.10996888
15.232939,0.11107794
15.05942,0.11158577
14.892062,0.11220542
14.730514,0.11313999
14.574441,0.1137782
14.423531,0.113986194
14.277491,0.1143378
14.136047,0.11514771
13.998942,0.11445866
13.865933,0.11466569
13.73679,0.11439476
13.611302,0.11459522
13.48927,0.114608385
13.3705015,0.115055785
13.254824,0.114908636
13.142069,0.11495451
13.032082,0.11506043
12.924716,0.11463877
12.819836,0.11444299
12.717309,0.11416565
12.617017,0.11452601
12.518845,0.114321254
12.422684,0.114211775
12.328438,0.11290401
12.23601,0.11283636
12.145311,0.11197381
12.056257,0.11120367
11.968773,0.110346876
11.882783,0.11019753
11.798219,0.10997113
11.7150135,0.10972873
11.633108,0.10981418
11.552444,0.107530214
11.472969,0.10710335
11.394629,0.10627727
11.317378,0.10603958
11.241171,0.104625225
11.165965,0.104125954
11.091721,0.10397126
11.018401,0.10397063
10.945969,0.1043599
10.874393,0.104378544
10.803641,0.10331333
10.733684,0.10341121
10.664492,0.10220834
10.596042,0.10170277
10.528306,0.10132178
10.461264,0.10113756
10.394891,0.10042016
10.329167,0.10021492
10.264075,0.09939911
10.199594,0.09903009
10.135705,0.09850721
10.072394,0.09728671
10.0096445,0.09691654
9.947442,0.0966825
9.885775,0.096256495
9.824624,0.09582013
9.763982,0.09611756
9.703834,0.09514077
9.64417,0.094938196
9.584979,0.09480424
9.526253,0.09409193
9.467979,0.092867404
9.410151,0.09316785
9.3527565,0.09234106
9.295791,0.09196888
9.239244,0.09261039
9.183109,0.09329522
9.12738,0.09282985
9.07205,0.09323581
9.01711,0.09203099
8.962557,0.09113174
8.908382,0.09074788
8.854581,0.0906017
8.801149,0.08954172
8.74808,0.08921272
8.69537,0.08979531
8.643014,0.0901711
8.591007,0.090082586
8.539344,0.090202086
8.48802,0.09117557
8.437034,0.09099446
8.38638,0.09046096
8.336055,0.0909635
8.286055,0.08910071
8.236377,0.08818238
8.187016,0.08733829
8.13797,0.08795397
8.089236,0.08830418
8.04081,0.08888119
7.9926906,0.08968904
7.9448724,0.09041178
7.8973556,0.08962156
7.850135,0.08992924
7.80321,0.089538805
7.7565756,0.08970239
7.710231,0.09019445
7.664174,0.09049942
7.6184006,0.090900086
7.57291,0.09125422
7.5276995,0.09016124
7.482766,0.090799764
7.4381084,0.09207763
7.3937244,0.09238466
7.349611,0.093878455
7.3057675,0.09399424
7.2621903,0.09325745
7.218879,0.0941693
7.175831,0.09432914
7.133044,0.09484405
7.090517,0.09602781
7.0482473,0.09624286
7.0062337,0.0960421
6.9644732,0.094844215
6.9229665,0.09520293
6.881709,0.094031386
6.840701,0.09353283
6.79994,0.093078285
6.7594247,0.09358244
6.719154,0.09306183
6.679125,0.09345636
6.6393356,0.09532982
6.599786,0.09540563
6.560474,0.09492505
6.5213976,0.09499243
6.482556,0.09539345
6.443947,0.09534477
6.4055705,0.095859274
6.367422,0.09609121
6.3295035,0.09597804
6.291812,0.09626427
6.254346,0.09602763
6.217103,0.09724573
6.1800838,0.098122194
6.1432858,0.09912394
6.106708,0.09805175
6.0703483,0.09732226
6.034206,0.09736328
5.9982805,0.09837042
5.9625683,0.099203356
5.92707,0.09961359
5.891784,0.10070352
5.856708,0.101927005
5.8218417,0.102162994
5.787183,0.10202143
5.752732,0.10263242
5.718485,0.103056446
5.684444,0.10322616
5.650605,0.10313704
5.616968,0.1057599
5.583532,0.10665353
5.550295,0.10729221
5.5172563,0.107671276
5.4844136,0.106659845
5.4517684,0.104432784
5.419316,0.10619791
5.387058,0.104810454
5.3549924,0.10604872
5.3231173,0.10565989
5.2914324,0.106155254
5.2599363,0.10554755
5.228627,0.10541518
5.1975055,0.104368664
5.166569,0.10548584
5.135817,0.104561105
5.105248,0.10589888
5.0748606,0.1091104
5.044654,0.11077206
5.0146275,0.112159885
4.9847803,0.11392479
4.955111,0.11262715
4.9256177,0.11160495
4.8963003,0.1122732
4.867158,0.1136173
4.8381886,0.11437269
4.809392,0.11611517
4.7807665,0.11741842
4.7523127,0.12033862
4.724026,0.120597705
4.695909,0.120391324
4.667959,0.11924412
4.640177,0.11995808
4.612559,0.11870706
4.585105,0.119497076
4.557816,0.12132859
4.530688,0.12309758
4.5037217,0.1245607
4.4769163,0.12530652
4.450271,0.12622006
4.423784,0.12599018
4.3974533,0.12558785
4.3712807,0.12600732
4.345264,0.12483859
4.3194017,0.12457667
4.293693,0.12413789
4.2681384,0.12641343
4.2427354,0.12674214
4.217483,0.12896556
4.192381,0.13121106
4.16743,0.13182226
4.142626,0.13085744
4.11797,0.13181737
4.09346,0.13109773
4.069097,0.13170406
4.0448785,0.13339092
4.0208044,0.1326534
3.9968739,0.13426578
3.9730854,0.13442953
3.949438,0.1338545
3.925932,0.13400811
3.9025662,0.13555525
3.8793387,0.13571128
3.85625,0.13671228
3.8332987,0.13591948
3.8104842,0.13635188
3.7878044,0.13678461
3.7652605,0.13789307
3.742851,0.13803916
3.7205741,0.13935396
3.6984303,0.14166191
3.6764178,0.14488198
3.6545374,0.14753896
3.632786,0.14982258
3.6111646,0.14860673
3.5896719,0.14635879
3.5683074,0.14682779
3.5470698,0.14494124
3.525958,0.14570603
3.5049734,0.14761503
3.484112,0.14735177
3.4633756,0.14739475
3.4427624,0.14933261
3.4222722,0.14905888
3.4019039,0.14802888
3.3816562,0.15063429
3.3615294,0.153806
3.3415227,0.15222602
3.321635,0.1526999
3.3018653,0.15427442
3.2822137,0.1556409
3.2626784,0.15479103
3.24326,0.15627794
3.2239568,0.15710096
3.2047691,0.15940204
3.1856952,0.16126885
3.1667347,0.16085762
3.1478868,0.16147447
3.1291518,0.16151235
3.1105278,0.15932558
3.0920146,0.15898699
3.0736122,0.16064812
3.0553188,0.16279915
3.037134,0.16497023
3.0190578,0.16631901
3.0010896,0.16622517
2.9832275,0.16551536
2.9654722,0.16724151
2.9478228,0.16651724
2.930278,0.16912617
2.9128375,0.17063776
2.895501,0.17103203
2.878268,0.1697838
2.8611374,0.17130831
2.8441086,0.16990678
2.8271809,0.17041004
2.8103547,0.17065462
2.7936282,0.1725868
2.7770011,0.1741435
2.7604735,0.17847665
2.7440438,0.17941284
2.7277122,0.18315108
2.711477,0.1841137
2.6953394,0.18292439
2.6792972,0.18537575
2.663351,0.18321155
2.6474993,0.1823872
2.631742,0.18306506
2.6160786,0.18541113
2.6005085,0.18498436
2.5850313,0.1872163
2.5696461,0.18791303
2.5543516,0.19017613
2.5391486,0.18945459
2.524037,0.19073282
2.5090146,0.1905715
2.4940815,0.19214961
2.4792366,0.19080874
2.4644816,0.19563682
2.4498136,0.19947776
2.4352329,0.20097053
2.420739,0.20277417
2.4063315,0.2061021
2.3920097,0.20733611
2.377773,0.2082719
2.363621,0.20936522
2.3495533,0.20938167
2.3355696,0.20907962
2.3216686,0.20892303
2.3078513,0.20828466
2.294115,0.207948
2.280461,0.20967105
2.2668889,0.20884278
2.253397,0.21186681
2.2399855,0.21621719
2.2266536,0.22093841
2.213401,0.21799335
2.2002275,0.22293153
2.1871324,0.2201132
2.174115,0.21925859
2.1611753,0.21872206
2.1483126,0.22459798
2.1355262,0.22322056
2.1228166,0.2254128
2.1101818,0.22727902
2.0976226,0.22829337
2.0851378,0.2275693
2.0727284,0.22717884
2.060392,0.22783366
2.0481286,0.23097184
2.0359385,0.23360398
2.0238216,0.23159155
2.0117764,0.23153336
1.9998028,0.23509987
1.9879006,0.23394866
1.9760691,0.2347978
1.9643079,0.23879321
1.9526169,0.24301405
1.9409955,0.24334593
1.9294431,0.24178997
1.9179596,0.24570036
1.9065444,0.24164486
1.8951972,0.24730937
1.8839173,0.24686149
1.8727047,0.24950364
1.8615594,0.24806981
1.8504798,0.25014415
1.8394659,0.25045678
1.8285179,0.25235376
1.8176354,0.25186568
1.8068173,0.25297153
1.7960637,0.25246322
1.7853739,0.25336432
1.7747478,0.25508603
1.7641851,0.2615561
1.753685,0.2608431
1.7432475,0.268866
1.7328722,0.2719435
1.7225585,0.27188435
1.7123064,0.269905
1.7021154,0.27109405
1.6919845,0.2669193
1.6819143,0.26938158
1.6719041,0.27512348
1.6619537,0.27567756
1.6520622,0.28084698
1.6422291,0.285626
1.6324553,0.28666836
1.6227394,0.28256333
1.6130813,0.2851561
1.6034806,0.2834646
1.5939372,0.28379413
1.5844505,0.2854933
1.5750202,0.2885868
1.5656462,0.28915432
1.5563277,0.2866834
1.5470649,0.28346795
1.5378572,0.28634652
1.5287046,0.28687254
1.5196058,0.28859022
1.5105615,0.29224235
1.5015709,0.2964118
1.4926344,0.29575226
1.4837507,0.29531917
1.4749194,0.29314598
1.466141,0.2906883
1.4574152,0.2959189
1.4487412,0.30120173
1.4401187,0.30578038
1.4315474,0.30989546
1.4230273,0.3130275
1.4145577,0.31156263
1.4061385,0.31239456
1.3977697,0.3160845
1.3894506,0.31954598
1.3811809,0.32014394
1.3729603,0.32550105
1.3647891,0.3290472
