energy,intensity
97.76732,0.0063548847
92.828835,0.0068338676
88.18945,0.0074941316
83.8307,0.008061485
79.735245,0.008721614
75.88682,0.009408091
72.27017,0.010185578
68.87099,0.010936246
65.67586,0.011689583
62.672165,0.012551293
59.848106,0.013246758
57.19261,0.014147691
54.69525,0.01505274
52.346306,0.016151603
50.136597,0.017276535
48.057564,0.01840196
46.10113,0.019592723
44.25976,0.02089219
42.52636,0.022025716
40.894283,0.023357872
39.357292,0.024657777
37.909534,0.026347023
36.545517,0.027728071
35.260098,0.02897591
34.04844,0.030487254
32.906017,0.031876948
31.828575,0.03319575
30.812122,0.03473893
29.85292,0.036110707
28.947456,0.037591677
28.092442,0.03895568
27.284779,0.04052162
26.521572,0.041879497
25.800108,0.043473072
25.117828,0.045058966
24.472345,0.046796773
23.861408,0.048131976
23.282911,0.049749218
22.734882,0.05130002
22.215462,0.052810222
21.722916,0.054425783
21.255604,0.056152254
20.812004,0.057925224
20.390675,0.05942505
19.990267,0.061142426
19.609518,0.06273723
19.247244,0.064352244
18.902327,0.06593016
18.573725,0.067487806
18.260456,0.068904266
17.961601,0.07053621
17.676302,0.07216801
17.403744,0.073632255
17.143167,0.07562041
16.893862,0.07738155
16.655159,0.078926906
16.426428,0.08104339
16.207083,0.08279035
15.996571,0.08437955
15.794373,0.086011864
15.6,0.08785214
15.412999,0.0895545
15.232939,0.09109011
15.05942,0.09281522
14.892062,0.09444384
14.730514,0.096392214
14.574441,0.097823314
14.423531,0.09950177
14.277491,0.10090126
14.136047,0.10260483
13.998942,0.103298284
13.865933,0.10478705
13.73679,0.10532254
13.611302,0.10658716
13.48927,0.107847705
13.3705015,0.10910462
13.254824,0.109837495
13.142069,0.11077987
13.032082,0.11207727
12.924716,0.11286775
12.819836,0.11379112
12.717309,0.11479421
12.617017,0.116023496
12.518845,0.11696236
12.422684,0.117487505
12.328438,0.118032
12.23601,0.11892358
12.145311,0.1190937
12.056257,0.11934052
11.968773,0.11957534
11.882783,0.12083814
11.798219,0.12121153
11.7150135,0.12219648
11.633108,0.12252587
11.552444,0.11772026
11.472969,0.11844073
11.394629,0.118266545
11.317378,0.11865647
11.241171,0.118555866
11.165965,0.11850836
11.091721,0.11926886
11.018401,0.11996357
10.945969,0.12098976
10.874393,0.12185295
10.803641,0.121810175
10.733684,0.12236714
10.664492,0.12237747
10.596042,0.12176214
10.528306,0.12192434
10.461264,0.12183742
10.394891,0.12153183
10.329167,0.12132021
10.264075,0.12116923
10.199594,0.120724104
10.135705,0.12040967
10.072394,0.119687535
10.0096445,0.1192763
9.947442,0.11907248
9.885775,0.11779386
9.824624,0.11708473
9.763982,0.11662116
9.703834,0.115733996
9.64417,0.11513139
9.584979,0.11421238
9.526253,0.11373414
9.467979,0.1131294
9.410151,0.11258906
9.3527565,0.11176492
9.295791,0.111355424
9.239244,0.11073921
9.183109,0.110506155
9.12738,0.10950898
9.07205,0.10901544
9.01711,0.10798731
8.962557,0.10653657
8.908382,0.105593815
8.854581,0.10492234
8.801149,0.10333006
8.74808,0.10275246
8.69537,0.10162039
8.643014,0.1008487
8.591007,0.1003596
8.539344,0.10007328
8.48802,0.099907875
8.437034,0.09956422
8.38638,0.09877922
8.336055,0.09798081
8.286055,0.094231024
8.236377,0.092505485
8.187016,0.09102177
8.13797,0.09067742
8.089236,0.09046014
8.04081,0.09032715
7.9926906,0.090780035
7.9448724,0.09022884
7.8973556,0.089253515
7.850135,0.08886472
7.80321,0.0879557
7.7565756,0.08778187
7.710231,0.08830952
7.664174,0.08831872
7.6184006,0.0886109
7.57291,0.08899925
7.5276995,0.08697567
7.482766,0.0866725
7.4381084,0.087241724
7.3937244,0.0871266
7.349611,0.08839108
7.3057675,0.08852367
7.2621903,0.08835443
7.218879,0.08893487
7.175831,0.08891143
7.133044,0.08883352
7.090517,0.089007616
7.0482473,0.08933522
7.0062337,0.08867817
6.9644732,0.0885317
6.9229665,0.08853768
6.881709,0.08743177
6.840701,0.087159194
6.79994,0.08688018
6.7594247,0.086272135
6.719154,0.08505883
6.679125,0.08524223
6.6393356,0.08739479
6.599786,0.08714779
6.560474,0.08761461
6.5213976,0.08641247
6.482556,0.08726652
6.443947,0.08750746
6.4055705,0.08763467
6.367422,0.088445015
6.3295035,0.089261875
6.291812,0.0888149
6.254346,0.08824318
6.217103,0.08871334
6.1800838,0.089656286
6.1432858,0.090134166
6.106708,0.08954361
6.0703483,0.08864347
6.034206,0.08778952
5.9982805,0.08873933
5.9625683,0.08975832
5.92707,0.090357184
5.891784,0.09151502
5.856708,0.091939025
5.8218417,0.092240006
5.787183,0.092415735
5.752732,0.09221128
5.718485,0.09244583
5.684444,0.093127266
5.650605,0.09284906
5.616968,0.09508689
5.583532,0.09643717
5.550295,0.09675282
5.5172563,0.09700292
5.4844136,0.09652384
5.4517684,0.09476927
5.419316,0.095336765
5.387058,0.093681954
5.3549924,0.09465001
5.3231173,0.09419293
5.2914324,0.09537493
5.2599363,0.09504805
5.228627,0.09485281
5.1975055,0.093743056
5.166569,0.09458567
5.135817,0.09359563
5.105248,0.09501008
5.0748606,0.09722567
5.044654,0.0988882
5.0146275,0.1009294
4.9847803,0.10218974
4.955111,0.101775065
4.9256177,0.10135176
4.8963003,0.10166179
4.867158,0.10174797
4.8381886,0.103033066
4.809392,0.10425435
4.7807665,0.10472661
4.7523127,0.107035615
4.724026,0.10675359
4.695909,0.10708328
4.667959,0.10601207
4.640177,0.107273236
4.612559,0.10673396
4.585105,0.107769266
4.557816,0.10801593
4.530688,0.109705195
4.5037217,0.109635994
4.4769163,0.110373594
4.450271,0.11185087
4.423784,0.11096007
4.3974533,0.10889789
4.3712807,0.11054732
4.345264,0.10995497
4.3194017,0.110276856
4.293693,0.10975246
4.2681384,0.11279313
4.2427354,0.11261211
4.217483,0.11466477
4.192381,0.11500466
4.16743,0.11656505
4.142626,0.11603512
4.11797,0.116200484
4.09346,0.116097376
4.069097,0.117060386
4.0448785,0.11874936
4.0208044,0.118466355
3.9968739,0.118902944
3.9730854,0.120163545
3.949438,0.120147064
3.925932,0.119385675
3.9025662,0.120100476
3.8793387,0.122037135
3.85625,0.12088343
3.8332987,0.118668914
3.8104842,0.11852125
3.7878044,0.11884723
3.7652605,0.11878683
3.742851,0.11988634
3.7205741,0.12304553
3.6984303,0.12623826
3.6764178,0.12897065
3.6545374,0.13133354
3.632786,0.13141981
3.6111646,0.1288864
3.5896719,0.12722892
3.5683074,0.12809248
3.5470698,0.12773266
3.525958,0.12839444
3.5049734,0.1312364
3.484112,0.13275215
3.4633756,0.13239303
3.4427624,0.13360783
3.4222722,0.13355845
3.4019039,0.13222204
3.3816562,0.13193932
3.3615294,0.13499907
3.3415227,0.1313493
3.321635,0.13224511
3.3018653,0.1358979
3.2822137,0.13770789
3.2626784,0.13775289
3.24326,0.13980995
3.2239568,0.13906929
3.2047691,0.14046879
3.1856952,0.14130983
3.1667347,0.14089382
3.1478868,0.13931358
3.1291518,0.1402638
3.1105278,0.14086999
3.0920146,0.14324102
3.0736122,0.14433506
3.0553188,0.14436682
3.037134,0.14893976
3.0190578,0.14814669
3.0010896,0.14673339
2.9832275,0.14541972
2.9654722,0.14788313
2.9478228,0.14642671
2.930278,0.14730345
2.9128375,0.14893384
2.895501,0.14957461
2.878268,0.14617819
2.8611374,0.14832331
2.8441086,0.14703964
2.8271809,0.14804853
2.8103547,0.14945209
2.7936282,0.1537284
2.7770011,0.15412551
2.7604735,0.15912852
2.7440438,0.15941924
2.7277122,0.16357054
2.711477,0.16374595
2.6953394,0.16283913
2.6792972,0.1635429
2.663351,0.16288504
2.6474993,0.16097835
2.631742,0.1619422
2.6160786,0.16568947
2.6005085,0.16416664
2.5850313,0.16599283
2.5696461,0.16797647
2.5543516,0.17211154
2.5391486,0.17113876
2.524037,0.17331496
2.5090146,0.17319417
2.4940815,0.17350277
2.4792366,0.17043822
2.4644816,0.17381752
2.4498136,0.17797273
2.4352329,0.17724797
2.420739,0.17875949
2.4063315,0.18435946
2.3920097,0.18683034
2.377773,0.188713
2.363621,0.18953547
2.3495533,0.19144349
2.3355696,0.18807833
2.3216686,0.187483
2.3078513,0.18624398
2.294115,0.18656723
2.280461,0.19103011
2.2668889,0.18832712
2.253397,0.19122833
2.2399855,0.1933465
2.2266536,0.19744131
2.213401,0.19583288
2.2002275,0.20162916
2.1871324,0.19735435
2.174115,0.1970319
2.1611753,0.19484922
2.1483126,0.19669238
2.1355262,0.19889091
2.1228166,0.20247786
2.1101818,0.20282929
2.0976226,0.20421693
2.0851378,0.20596239
2.0727284,0.20386496
2.060392,0.20208779
2.0481286,0.20613618
2.0359385,0.20879808
2.0238216,0.2078938
2.0117764,0.20895799
1.9998028,0.21275266
1.9879006,0.21201596
1.9760691,0.21291764
1.9643079,0.21826175
1.9526169,0.22105725
1.9409955,0.21957293
1.9294431,0.21636812
1.9179596,0.21861081
1.9065444,0.21801397
1.8951972,0.22257844
1.8839173,0.22275391
1.8727047,0.22952011
1.8615594,0.23089425
1.8504798,0.23463288
1.8394659,0.23485258
1.8285179,0.23188727
1.8176354,0.22967756
1.8068173,0.22803637
1.7960637,0.22879478
1.7853739,0.22609457
1.7747478,0.22929081
1.7641851,0.23478262
1.753685,0.23308066
1.7432475,0.24031201
1.7328722,0.24426691
1.7225585,0.24804962
1.7123064,0.24529102
1.7021154,0.24633269
1.6919845,0.24050657
1.6819143,0.24302666
1.6719041,0.25078395
1.6619537,0.249662
1.6520622,0.25401586
1.6422291,0.2612892
1.6324553,0.25461853
1.6227394,0.2543518
1.6130813,0.2574514
1.6034806,0.25582057
1.5939372,0.2575802
1.5844505,0.26141554
1.5750202,0.26321143
1.5656462,0.26177052
1.5563277,0.26030296
1.5470649,0.25458103
1.5378572,0.25421524
1.5287046,0.25502425
1.5196058,0.25965947
1.5105615,0.26097363
1.5015709,0.26906934
1.4926344,0.26848954
1.4837507,0.27009708
1.4749194,0.26555577
1.466141,0.26318067
1.4574152,0.2694931
1.4487412,0.27762726
1.4401187,0.28282163
1.4315474,0.2883221
1.4230273,0.2918356
1.4145577,0.28741854
1.4061385,0.28061244
1.3977697,0.2885311
1.3894506,0.28947416
1.3811809,0.28936592
1.3729603,0.2942741
1.3647891,0.30295768
